EMG_1,EMG_2,EMG_3,EMG_4,EMG_5,EMG_6,EMG_7,EMG_8,thumb_theta_1,thumb_theta_2,thumb_theta_3,index_theta_1,index_theta_2,index_theta_3,middle_theta_1,middle_theta_2,middle_theta_3,ring_theta_1,ring_theta_2,ring_theta_3,little_theta_1,little_theta_2,little_theta_3
0.5009941,0.49682572,0.4920936,0.4957049,0.5030628,0.49905556,0.4885567,0.46527967,30.0,51.0,69.0,64.0,79.0,64.0,62.0,64.0,70.0,60.0,63.0,88.0,69.0,68.0,64.0
0.4975257,0.4993375,0.48987278,0.4957049,0.5027411,0.5098414,0.4885567,0.46944153,22.0,39.0,53.0,60.0,62.0,32.0,37.0,52.0,53.0,56.0,53.0,56.0,41.0,35.0,40.0
0.5035054,0.47551912,0.49412376,0.49794883,0.46241164,0.50436634,0.47762543,0.46487403,30.0,20.0,44.0,71.0,50.0,50.0,5.0,3.0,21.0,2.0,16.0,26.0,3.0,20.0,24.0
0.5009941,0.4665532,0.48036915,0.48978934,0.5182767,0.5038682,0.47100854,0.4926175,44.0,35.0,41.0,17.0,5.0,24.0,58.0,51.0,58.0,70.0,73.0,63.0,62.0,72.0,67.0
0.49810556,0.49682572,0.48987278,0.49617848,0.5027411,0.5098414,0.4885567,0.4823405,18.0,43.0,52.0,47.0,61.0,49.0,39.0,32.0,48.0,38.0,62.0,38.0,49.0,51.0,60.0
0.5155009,0.502762,0.49675918,0.50481516,0.4994831,0.51229554,0.49477604,0.45964766,2.0,29.0,26.0,12.0,15.0,28.0,19.0,10.0,5.0,19.0,6.0,29.0,9.0,28.0,15.0
0.48655048,0.45893,0.50423956,0.4840535,0.46363682,0.5145932,0.49199498,0.49341047,12.0,5.0,23.0,11.0,18.0,28.0,8.0,5.0,8.0,29.0,16.0,2.0,26.0,8.0,30.0
0.5035054,0.49206874,0.4924116,0.48978934,0.50660217,0.49662447,0.4885567,0.4917324,59.0,38.0,39.0,36.0,4.0,56.0,65.0,47.0,58.0,89.0,66.0,66.0,62.0,72.0,72.0
0.48505783,0.49659827,0.47647128,0.49996665,0.48436406,0.5140025,0.47787735,0.4973676,20.0,23.0,29.0,4.0,22.0,23.0,20.0,9.0,25.0,21.0,6.0,30.0,27.0,6.0,14.0
0.5009941,0.49682572,0.4920936,0.48978934,0.50660217,0.50250286,0.4885567,0.4888724,38.0,45.0,59.0,27.0,22.0,13.0,52.0,50.0,60.0,72.0,78.0,75.0,68.0,73.0,74.0
0.4975257,0.4993375,0.48987278,0.4957049,0.5027411,0.5098414,0.4885567,0.47161192,20.0,38.0,45.0,32.0,69.0,43.0,42.0,71.0,40.0,47.0,36.0,56.0,57.0,31.0,44.0
0.47966018,0.48695406,0.48806408,0.5068031,0.49297035,0.50637126,0.48163798,0.49359888,24.0,9.0,15.0,14.0,10.0,30.0,11.0,8.0,16.0,10.0,20.0,12.0,4.0,1.0,13.0
0.4975257,0.50053775,0.47763318,0.4957049,0.50848657,0.5093072,0.4831572,0.49810845,20.0,24.0,52.0,39.0,53.0,44.0,53.0,53.0,43.0,32.0,72.0,31.0,42.0,72.0,37.0
0.5009941,0.494366,0.4920936,0.4957049,0.5030628,0.49905556,0.4885567,0.46778572,42.0,42.0,69.0,71.0,66.0,64.0,62.0,85.0,61.0,60.0,62.0,77.0,78.0,77.0,85.0
0.49560055,0.4343845,0.48639566,0.49086675,0.47416383,0.50152105,0.47377157,0.5132404,26.0,7.0,5.0,7.0,14.0,24.0,16.0,15.0,24.0,18.0,17.0,3.0,4.0,25.0,1.0
0.48505783,0.4775346,0.47518697,0.49303257,0.46973938,0.5091006,0.4895913,0.46455878,5.0,25.0,28.0,10.0,7.0,24.0,16.0,29.0,2.0,1.0,29.0,25.0,30.0,9.0,4.0
0.5065521,0.46383104,0.44863892,0.48978934,0.48322928,0.4959251,0.45621264,0.48794535,32.0,42.0,50.0,14.0,16.0,49.0,56.0,58.0,59.0,89.0,69.0,70.0,68.0,62.0,63.0
0.4992477,0.49572137,0.49154282,0.49969175,0.49084216,0.5081791,0.48876813,0.4799228,0.0,14.0,6.0,18.0,26.0,17.0,5.0,6.0,15.0,10.0,20.0,19.0,6.0,21.0,6.0
0.5009941,0.49206874,0.4924116,0.4957049,0.50660217,0.50036556,0.4885567,0.4926175,58.0,39.0,47.0,24.0,27.0,34.0,68.0,49.0,58.0,66.0,66.0,74.0,70.0,64.0,74.0
0.5032031,0.48367897,0.49350724,0.47835147,0.4859077,0.50829464,0.488733,0.4948136,38.0,22.0,36.0,53.0,49.0,46.0,19.0,26.0,23.0,7.0,2.0,21.0,9.0,13.0,5.0
0.5148739,0.48158103,0.50614214,0.5057344,0.4667322,0.50668573,0.49326023,0.47875637,21.0,24.0,29.0,61.0,56.0,60.0,6.0,5.0,13.0,9.0,12.0,25.0,13.0,16.0,28.0
0.5009941,0.49682572,0.4920936,0.4957049,0.5030628,0.49719876,0.4885567,0.49011144,33.0,44.0,50.0,41.0,52.0,38.0,45.0,70.0,53.0,34.0,65.0,40.0,55.0,54.0,51.0
0.5035054,0.49362022,0.4920936,0.48978934,0.50660217,0.4959251,0.4885567,0.4879873,38.0,50.0,43.0,23.0,22.0,39.0,48.0,46.0,53.0,74.0,64.0,63.0,67.0,77.0,60.0
0.5009941,0.45432988,0.49726337,0.4854629,0.4695103,0.49731076,0.4831572,0.47902465,29.0,19.0,41.0,56.0,50.0,54.0,33.0,54.0,46.0,57.0,75.0,41.0,31.0,66.0,58.0
0.5194324,0.49674454,0.47491503,0.46910137,0.4902484,0.51120293,0.49003938,0.4622591,24.0,28.0,25.0,48.0,56.0,57.0,1.0,26.0,14.0,14.0,2.0,15.0,9.0,25.0,3.0
0.5009941,0.49206874,0.4920936,0.4957049,0.5030628,0.49905556,0.4885567,0.46778572,46.0,59.0,87.0,61.0,76.0,68.0,62.0,78.0,65.0,60.0,74.0,68.0,62.0,96.0,67.0
0.4804223,0.4912151,0.4815083,0.51427734,0.49785677,0.5084794,0.47943425,0.5110269,17.0,13.0,37.0,22.0,24.0,11.0,13.0,2.0,17.0,11.0,2.0,2.0,19.0,9.0,8.0
0.50887954,0.4931117,0.4830375,0.49500805,0.4870338,0.50625664,0.47762543,0.47420713,30.0,15.0,20.0,73.0,49.0,54.0,16.0,0.0,24.0,21.0,7.0,12.0,23.0,18.0,15.0
0.49810556,0.5030495,0.47790223,0.49617848,0.512026,0.5093072,0.49012205,0.47963703,18.0,20.0,38.0,39.0,44.0,52.0,56.0,41.0,54.0,51.0,63.0,44.0,54.0,35.0,47.0
0.48655048,0.47628203,0.4686281,0.5200466,0.47392258,0.5039001,0.47787735,0.51339835,2.0,3.0,12.0,5.0,28.0,22.0,1.0,0.0,23.0,16.0,3.0,18.0,7.0,6.0,26.0
0.4878633,0.4749455,0.49981242,0.5054809,0.46432823,0.5154776,0.5026109,0.49919608,25.0,0.0,12.0,5.0,1.0,11.0,18.0,25.0,30.0,18.0,7.0,22.0,10.0,2.0,28.0
0.5009941,0.49206874,0.4924116,0.4957049,0.5030628,0.49905556,0.4885567,0.46778572,47.0,40.0,56.0,60.0,78.0,70.0,60.0,82.0,81.0,60.0,76.0,70.0,73.0,72.0,74.0
0.47784483,0.4640756,0.47796172,0.5285008,0.4527466,0.5064922,0.4903654,0.51874197,21.0,27.0,10.0,10.0,30.0,7.0,13.0,26.0,1.0,26.0,29.0,6.0,27.0,8.0,7.0
0.5009941,0.49206874,0.4924116,0.4957049,0.50391555,0.49905556,0.4885567,0.46932754,52.0,32.0,73.0,75.0,66.0,79.0,60.0,85.0,86.0,60.0,61.0,80.0,77.0,67.0,69.0
0.48505783,0.4910769,0.4865806,0.51601464,0.48220268,0.51953787,0.49351215,0.5129986,11.0,18.0,24.0,23.0,4.0,21.0,28.0,17.0,13.0,14.0,3.0,24.0,3.0,2.0,10.0
0.49988592,0.50053775,0.4961251,0.4957049,0.5043736,0.50241697,0.4831572,0.47902465,27.0,18.0,39.0,53.0,56.0,59.0,50.0,62.0,47.0,50.0,73.0,34.0,54.0,73.0,56.0
0.5022854,0.4832673,0.4920936,0.4957049,0.5030628,0.4959251,0.4885567,0.48922634,36.0,60.0,57.0,22.0,51.0,41.0,63.0,48.0,55.0,66.0,66.0,65.0,65.0,62.0,71.0
0.5009941,0.50053775,0.49726337,0.4957049,0.507913,0.49931294,0.4831572,0.4927857,34.0,16.0,31.0,45.0,39.0,37.0,34.0,69.0,36.0,35.0,72.0,56.0,48.0,74.0,39.0
0.48505783,0.4951768,0.48674092,0.50536495,0.46453303,0.50569594,0.49259618,0.46512288,18.0,20.0,39.0,15.0,20.0,12.0,17.0,16.0,0.0,15.0,28.0,18.0,15.0,1.0,14.0
0.5148739,0.48125222,0.5086721,0.49604094,0.51213974,0.5043866,0.49465826,0.4656034,37.0,43.0,45.0,60.0,58.0,48.0,26.0,10.0,6.0,13.0,22.0,27.0,13.0,29.0,17.0
0.5009941,0.49206874,0.4924116,0.4957049,0.50660217,0.4956252,0.4885567,0.4926175,57.0,39.0,33.0,31.0,31.0,42.0,63.0,59.0,51.0,83.0,77.0,74.0,60.0,79.0,72.0
0.49371955,0.50053775,0.48987278,0.4957049,0.50848657,0.5093072,0.4885567,0.49011144,19.0,29.0,40.0,42.0,59.0,57.0,37.0,61.0,30.0,54.0,46.0,39.0,54.0,61.0,53.0
0.5009941,0.49206874,0.4920936,0.4957049,0.5030628,0.49905556,0.4885567,0.46778572,58.0,46.0,87.0,72.0,85.0,75.0,61.0,74.0,81.0,60.0,81.0,69.0,64.0,65.0,88.0
0.50095147,0.50053775,0.4961251,0.4937205,0.48068437,0.5093072,0.4831572,0.49118796,23.0,17.0,48.0,45.0,34.0,56.0,34.0,39.0,59.0,35.0,50.0,51.0,33.0,72.0,54.0
0.51287585,0.48273805,0.5015419,0.48124045,0.49241334,0.50711775,0.4990081,0.49508178,43.0,15.0,17.0,60.0,56.0,59.0,7.0,27.0,20.0,23.0,5.0,14.0,24.0,2.0,19.0
0.5009941,0.49682572,0.4920936,0.4957049,0.5062936,0.50250286,0.4885567,0.4926175,39.0,50.0,43.0,25.0,50.0,15.0,52.0,56.0,54.0,76.0,74.0,66.0,67.0,72.0,68.0
0.5009941,0.49807805,0.4924116,0.4957049,0.50880826,0.49731076,0.48567683,0.4941593,42.0,28.0,56.0,44.0,51.0,58.0,46.0,70.0,33.0,51.0,61.0,48.0,36.0,52.0,35.0
0.49810556,0.5030495,0.48987278,0.4957049,0.512026,0.5093072,0.4885567,0.46727544,19.0,31.0,43.0,49.0,31.0,51.0,43.0,47.0,40.0,41.0,38.0,35.0,54.0,34.0,54.0
0.48505783,0.49252766,0.48326945,0.5092473,0.4889805,0.5085461,0.47787735,0.5078906,17.0,22.0,32.0,15.0,22.0,18.0,14.0,8.0,20.0,14.0,30.0,26.0,12.0,5.0,10.0
0.5009941,0.4993375,0.49215406,0.4957049,0.5030628,0.50197,0.4885567,0.46527967,36.0,33.0,52.0,52.0,75.0,34.0,32.0,64.0,56.0,56.0,36.0,47.0,51.0,38.0,50.0
0.48655048,0.47955105,0.4750845,0.51963156,0.5070147,0.51775885,0.4899214,0.49763444,15.0,27.0,1.0,22.0,0.0,25.0,27.0,19.0,22.0,16.0,8.0,20.0,19.0,5.0,29.0
0.5041661,0.47645852,0.49180645,0.50231016,0.47439995,0.51279455,0.47762543,0.46708858,20.0,10.0,22.0,14.0,19.0,28.0,11.0,11.0,26.0,11.0,25.0,26.0,9.0,28.0,21.0
0.49847424,0.4988351,0.49692592,0.5012771,0.5073244,0.5133824,0.48353451,0.5025903,30.0,14.0,5.0,24.0,5.0,5.0,2.0,1.0,10.0,23.0,18.0,4.0,17.0,12.0,18.0
0.5152297,0.5010593,0.46247986,0.46910137,0.4746981,0.5088108,0.4895913,0.46672136,1.0,10.0,25.0,14.0,25.0,19.0,9.0,23.0,16.0,25.0,18.0,16.0,19.0,27.0,14.0
0.4923344,0.49785525,0.48987278,0.5031157,0.5027411,0.5098414,0.4885567,0.49011144,17.0,42.0,37.0,34.0,52.0,34.0,46.0,54.0,35.0,56.0,43.0,48.0,55.0,69.0,32.0
0.49336916,0.484663,0.49053913,0.49482366,0.47429448,0.51454306,0.47762543,0.46672136,12.0,26.0,25.0,6.0,17.0,11.0,9.0,2.0,19.0,26.0,0.0,29.0,27.0,21.0,20.0
0.5009941,0.49206874,0.4920936,0.4957049,0.5030628,0.49905556,0.4885567,0.46778572,44.0,48.0,75.0,70.0,92.0,68.0,60.0,76.0,88.0,60.0,70.0,85.0,76.0,70.0,77.0
0.5141192,0.44276315,0.48422354,0.49663758,0.49124154,0.5023821,0.47377157,0.5110269,21.0,0.0,15.0,28.0,29.0,21.0,27.0,1.0,23.0,24.0,22.0,2.0,11.0,19.0,6.0
0.51137507,0.4806015,0.4961431,0.4904599,0.5114418,0.50625664,0.5091707,0.4911691,42.0,20.0,38.0,48.0,50.0,54.0,24.0,2.0,23.0,6.0,14.0,30.0,24.0,30.0,15.0
0.50095147,0.50053775,0.4961251,0.4957049,0.512026,0.5093072,0.4831572,0.49118796,24.0,19.0,52.0,46.0,33.0,48.0,49.0,37.0,58.0,49.0,67.0,34.0,49.0,70.0,47.0
0.5035054,0.4945805,0.4924116,0.4957049,0.5027846,0.5043866,0.4885567,0.48366416,44.0,40.0,34.0,37.0,34.0,51.0,59.0,46.0,31.0,44.0,65.0,52.0,34.0,30.0,50.0
0.5081157,0.46777728,0.46131313,0.49225026,0.47495288,0.51368815,0.48353451,0.52039814,8.0,8.0,16.0,11.0,2.0,6.0,28.0,18.0,20.0,13.0,20.0,4.0,29.0,21.0,11.0
0.50220084,0.4974448,0.4650066,0.4928737,0.47238478,0.5104805,0.4895913,0.47128734,2.0,13.0,19.0,3.0,25.0,10.0,27.0,28.0,26.0,5.0,10.0,15.0,29.0,17.0,14.0
0.4975257,0.50036705,0.48987278,0.4957049,0.5062805,0.5098414,0.4885567,0.47654942,20.0,40.0,54.0,48.0,37.0,52.0,59.0,55.0,53.0,51.0,46.0,32.0,55.0,40.0,33.0
0.5022854,0.50156724,0.49726337,0.4957049,0.507913,0.49769258,0.48216283,0.48918036,39.0,23.0,53.0,47.0,44.0,51.0,37.0,48.0,32.0,34.0,53.0,60.0,48.0,56.0,33.0
0.5035054,0.50053775,0.4924116,0.4957049,0.50880826,0.4956252,0.4885567,0.48922634,34.0,31.0,59.0,34.0,60.0,58.0,43.0,35.0,37.0,55.0,72.0,41.0,58.0,52.0,49.0
0.50240207,0.47759736,0.49726334,0.5045788,0.4663601,0.5162806,0.49363196,0.48269463,8.0,30.0,28.0,8.0,5.0,26.0,8.0,2.0,11.0,19.0,18.0,12.0,3.0,16.0,23.0
0.50095147,0.49682572,0.48987278,0.4957049,0.5062805,0.5093072,0.4885567,0.4740666,23.0,34.0,44.0,48.0,32.0,47.0,58.0,37.0,32.0,56.0,31.0,59.0,45.0,48.0,53.0
0.5009941,0.49206874,0.4920936,0.4957049,0.5030628,0.49905556,0.4885567,0.46778572,53.0,44.0,60.0,63.0,92.0,76.0,69.0,71.0,74.0,60.0,75.0,75.0,60.0,89.0,71.0
0.52925426,0.49079314,0.48536184,0.48092487,0.48157153,0.51279455,0.48066527,0.47168562,20.0,14.0,29.0,2.0,8.0,3.0,9.0,25.0,2.0,0.0,17.0,12.0,17.0,14.0,18.0
0.5040128,0.49981913,0.45707357,0.49855292,0.49795282,0.50641346,0.48302108,0.4698973,15.0,29.0,21.0,6.0,4.0,4.0,3.0,13.0,24.0,22.0,17.0,27.0,30.0,20.0,2.0
0.48655048,0.48248735,0.5038929,0.49840027,0.47454238,0.5102126,0.49259618,0.46671104,20.0,28.0,45.0,28.0,5.0,23.0,4.0,11.0,1.0,16.0,3.0,23.0,17.0,2.0,27.0
0.51919097,0.44681254,0.4813255,0.4653357,0.4547926,0.5104771,0.47529754,0.52246815,20.0,19.0,44.0,1.0,26.0,29.0,8.0,29.0,12.0,4.0,11.0,9.0,27.0,17.0,10.0
0.5009941,0.47806278,0.49726337,0.4957049,0.5043736,0.49905556,0.48216283,0.4824893,44.0,23.0,34.0,58.0,51.0,56.0,30.0,66.0,33.0,42.0,39.0,42.0,55.0,63.0,34.0
0.5009941,0.49206874,0.4920936,0.4957049,0.5030628,0.49905556,0.4885567,0.46778572,55.0,50.0,69.0,74.0,84.0,80.0,69.0,77.0,77.0,60.0,66.0,80.0,78.0,81.0,86.0
0.5141192,0.44406164,0.47274166,0.4928737,0.45493466,0.509831,0.47663432,0.51972115,2.0,11.0,15.0,16.0,25.0,23.0,15.0,21.0,26.0,7.0,6.0,10.0,13.0,21.0,9.0
0.5009941,0.47453833,0.4924116,0.4854629,0.47394502,0.5043866,0.4885567,0.48897782,42.0,29.0,30.0,54.0,52.0,55.0,57.0,65.0,36.0,38.0,33.0,32.0,31.0,31.0,39.0
0.5148739,0.479582,0.49642208,0.50035274,0.46727923,0.5083205,0.52023673,0.4896359,40.0,23.0,42.0,56.0,49.0,47.0,17.0,1.0,13.0,24.0,15.0,21.0,2.0,23.0,22.0
0.5194324,0.4343845,0.47069576,0.49326596,0.49044266,0.5164527,0.47377157,0.5123619,1.0,28.0,40.0,8.0,4.0,22.0,9.0,6.0,19.0,16.0,9.0,10.0,21.0,16.0,5.0
0.5009941,0.49682572,0.4924116,0.4957049,0.5030628,0.4956252,0.4885567,0.4926175,39.0,40.0,58.0,34.0,56.0,43.0,54.0,51.0,52.0,68.0,69.0,68.0,70.0,71.0,70.0
0.49810556,0.49682572,0.48987278,0.4957049,0.5027411,0.5093072,0.4885567,0.4823405,19.0,36.0,52.0,47.0,57.0,45.0,46.0,37.0,41.0,51.0,65.0,47.0,58.0,63.0,40.0
0.50180006,0.49359298,0.4513942,0.4970836,0.4915198,0.51143634,0.47762543,0.4819549,15.0,12.0,23.0,25.0,14.0,15.0,10.0,15.0,25.0,22.0,1.0,19.0,21.0,16.0,18.0
0.4975257,0.5030495,0.478769,0.4957049,0.512026,0.5093072,0.49012205,0.4972781,20.0,17.0,37.0,36.0,31.0,57.0,48.0,53.0,53.0,37.0,55.0,33.0,37.0,39.0,42.0
0.5024589,0.49790385,0.49521196,0.50063634,0.51663214,0.5067829,0.48678172,0.48412156,17.0,8.0,1.0,24.0,1.0,0.0,16.0,2.0,16.0,4.0,8.0,19.0,24.0,17.0,12.0
0.5041698,0.44138822,0.49350724,0.47835147,0.4601635,0.49860153,0.47378948,0.5128447,34.0,16.0,55.0,55.0,54.0,47.0,26.0,30.0,21.0,10.0,29.0,6.0,8.0,13.0,4.0
0.5009941,0.494366,0.4920936,0.4957049,0.5030628,0.49905556,0.4885567,0.46778572,40.0,45.0,82.0,61.0,62.0,81.0,60.0,63.0,75.0,60.0,89.0,70.0,71.0,71.0,82.0
0.51919097,0.49841136,0.49093175,0.49970403,0.50610745,0.50759083,0.49259618,0.47206005,14.0,27.0,44.0,18.0,6.0,10.0,11.0,4.0,8.0,0.0,20.0,23.0,26.0,16.0,0.0
0.5009941,0.4665532,0.4794664,0.4957049,0.4823811,0.5028027,0.4726642,0.4926175,46.0,53.0,42.0,18.0,26.0,20.0,51.0,55.0,55.0,89.0,70.0,67.0,66.0,63.0,72.0
0.5009941,0.49206874,0.4920936,0.4957049,0.5030628,0.49905556,0.4885567,0.46778572,44.0,53.0,49.0,66.0,77.0,71.0,64.0,82.0,73.0,60.0,87.0,76.0,78.0,99.0,69.0
0.5009941,0.49682572,0.4924116,0.4957049,0.5030628,0.49905556,0.4885567,0.46527967,33.0,38.0,58.0,61.0,97.0,67.0,68.0,73.0,74.0,60.0,75.0,82.0,67.0,75.0,72.0
0.52878195,0.4879142,0.47527015,0.46155885,0.4681165,0.50813544,0.4895913,0.46455878,16.0,30.0,35.0,60.0,59.0,46.0,2.0,26.0,1.0,4.0,20.0,15.0,20.0,12.0,8.0
0.5191697,0.4805479,0.4928236,0.47676662,0.48396125,0.5002925,0.48682076,0.5099906,36.0,16.0,41.0,66.0,47.0,54.0,26.0,18.0,7.0,9.0,12.0,11.0,17.0,24.0,8.0
0.48505783,0.48123842,0.48024407,0.5285731,0.48220268,0.5143034,0.4895913,0.51765776,9.0,20.0,24.0,19.0,0.0,19.0,28.0,30.0,18.0,9.0,22.0,29.0,11.0,8.0,8.0
0.4772546,0.48125952,0.47105262,0.4902801,0.4631057,0.5057934,0.49295324,0.51766956,19.0,34.0,16.0,73.0,52.0,58.0,19.0,22.0,12.0,12.0,26.0,12.0,0.0,9.0,2.0
0.49906808,0.50091094,0.48458305,0.4918647,0.4980063,0.5002925,0.47762543,0.48225898,30.0,0.0,1.0,24.0,20.0,13.0,14.0,10.0,27.0,28.0,9.0,17.0,5.0,20.0,6.0
0.4919485,0.4865117,0.4972493,0.49022353,0.49147114,0.5073915,0.5091707,0.49908552,42.0,28.0,19.0,56.0,57.0,59.0,27.0,1.0,3.0,11.0,8.0,14.0,23.0,12.0,22.0
0.50239724,0.4993375,0.48987278,0.4957049,0.5043403,0.5098414,0.4885567,0.47161192,25.0,38.0,47.0,42.0,67.0,37.0,56.0,42.0,51.0,54.0,33.0,54.0,51.0,32.0,58.0
0.5009941,0.49682572,0.4924116,0.4957049,0.5030628,0.49905556,0.4885567,0.46527967,31.0,33.0,61.0,61.0,97.0,83.0,65.0,60.0,80.0,60.0,98.0,80.0,77.0,67.0,75.0
0.5009941,0.48155203,0.49726337,0.4957049,0.507913,0.49741155,0.4831572,0.50349206,44.0,19.0,50.0,32.0,35.0,38.0,52.0,59.0,57.0,46.0,65.0,42.0,49.0,58.0,33.0
0.4975257,0.50053775,0.4961251,0.4957049,0.512026,0.5093072,0.48216283,0.49887583,22.0,18.0,54.0,32.0,42.0,53.0,59.0,55.0,32.0,56.0,72.0,31.0,53.0,67.0,43.0
0.51758283,0.4831986,0.49159738,0.48490784,0.47963506,0.49860153,0.5083837,0.49995732,40.0,27.0,33.0,50.0,47.0,47.0,3.0,16.0,16.0,29.0,26.0,23.0,3.0,15.0,13.0
0.5009941,0.49206874,0.4924116,0.4957049,0.5030628,0.49905556,0.4885567,0.46778572,51.0,35.0,50.0,66.0,88.0,67.0,62.0,98.0,69.0,60.0,61.0,61.0,70.0,71.0,63.0
0.5035054,0.494366,0.4920936,0.4957049,0.5030628,0.4956252,0.4885567,0.4917324,40.0,52.0,38.0,39.0,52.0,48.0,65.0,46.0,51.0,73.0,63.0,69.0,66.0,63.0,63.0
0.4991239,0.50053775,0.4961251,0.4957049,0.50848657,0.5093072,0.49012205,0.49335405,23.0,18.0,52.0,46.0,65.0,42.0,57.0,48.0,41.0,56.0,62.0,57.0,40.0,46.0,35.0
0.4978833,0.49978507,0.4672892,0.5021097,0.48549116,0.501375,0.49016842,0.490105,20.0,25.0,5.0,28.0,2.0,3.0,21.0,21.0,4.0,17.0,28.0,25.0,14.0,12.0,9.0
0.5035054,0.494366,0.4924116,0.4957049,0.5030628,0.4956252,0.4885567,0.4917324,40.0,38.0,50.0,38.0,75.0,57.0,44.0,36.0,51.0,49.0,71.0,43.0,59.0,64.0,35.0
0.5009941,0.50053775,0.4924116,0.4957049,0.50880826,0.49905556,0.4885567,0.46527967,36.0,31.0,57.0,74.0,78.0,75.0,64.0,81.0,74.0,60.0,83.0,63.0,65.0,89.0,78.0
0.51892823,0.4832699,0.49407282,0.47835147,0.47963506,0.49946317,0.48828492,0.48930788,44.0,33.0,38.0,50.0,57.0,46.0,18.0,25.0,20.0,12.0,25.0,23.0,26.0,18.0,7.0
0.5035054,0.4665532,0.4920936,0.49226847,0.48617375,0.4959251,0.4885567,0.4917324,45.0,51.0,52.0,20.0,23.0,48.0,59.0,47.0,54.0,78.0,71.0,68.0,62.0,78.0,65.0
0.5009941,0.47806278,0.4924116,0.4957049,0.50880826,0.49905556,0.4885567,0.46932754,53.0,31.0,62.0,71.0,67.0,78.0,70.0,89.0,62.0,60.0,76.0,69.0,66.0,75.0,65.0
0.5009941,0.49206874,0.4920936,0.4957049,0.5030628,0.49905556,0.4885567,0.46778572,57.0,44.0,46.0,65.0,93.0,71.0,67.0,85.0,88.0,60.0,73.0,80.0,61.0,61.0,77.0
0.50216776,0.495356,0.4844121,0.4787609,0.46209505,0.5011541,0.5104621,0.5182463,44.0,19.0,56.0,73.0,51.0,50.0,0.0,17.0,25.0,29.0,5.0,5.0,22.0,10.0,7.0
0.5009941,0.49206874,0.4920936,0.4957049,0.5030628,0.49905556,0.4885567,0.46778572,58.0,52.0,80.0,65.0,80.0,78.0,69.0,76.0,82.0,60.0,76.0,85.0,74.0,86.0,69.0
0.51758677,0.4987591,0.49609056,0.49326596,0.5130026,0.50837773,0.49620643,0.46212378,24.0,26.0,20.0,22.0,21.0,29.0,11.0,0.0,6.0,1.0,7.0,14.0,24.0,29.0,12.0
0.48792195,0.47886768,0.4931971,0.49451438,0.45913973,0.5050475,0.47639948,0.49817726,18.0,35.0,52.0,55.0,46.0,52.0,5.0,9.0,27.0,2.0,21.0,15.0,27.0,2.0,28.0
0.4772546,0.495356,0.4824857,0.50800765,0.45397487,0.5086219,0.47812697,0.51972115,17.0,37.0,20.0,56.0,56.0,47.0,1.0,16.0,22.0,3.0,24.0,6.0,5.0,3.0,15.0
0.5194324,0.49344975,0.47640106,0.47900257,0.48681042,0.50496167,0.4895913,0.46645787,20.0,26.0,40.0,68.0,50.0,54.0,12.0,19.0,21.0,8.0,23.0,27.0,15.0,17.0,8.0
0.5191697,0.47992492,0.48422354,0.5005891,0.49211204,0.49860153,0.5040711,0.48623288,39.0,42.0,49.0,51.0,51.0,58.0,12.0,0.0,27.0,28.0,26.0,13.0,7.0,20.0,8.0
0.5000855,0.46355104,0.46247986,0.49970528,0.49494228,0.5113046,0.47671312,0.5126926,7.0,22.0,8.0,25.0,12.0,15.0,12.0,29.0,19.0,19.0,4.0,2.0,12.0,19.0,21.0
0.49810556,0.5030495,0.47790223,0.5031157,0.50848657,0.5093072,0.49012205,0.46944153,16.0,18.0,47.0,54.0,63.0,51.0,52.0,42.0,59.0,32.0,59.0,44.0,39.0,36.0,55.0
0.5291927,0.48538804,0.4753858,0.46155885,0.48041847,0.50691223,0.4885567,0.45202535,20.0,37.0,47.0,72.0,59.0,52.0,18.0,24.0,1.0,30.0,25.0,23.0,16.0,13.0,19.0
0.48505783,0.48043463,0.48131907,0.5126716,0.48911446,0.5086408,0.47639948,0.5200733,15.0,41.0,59.0,46.0,51.0,58.0,2.0,10.0,30.0,12.0,1.0,17.0,12.0,4.0,3.0
0.5035054,0.4993375,0.4920936,0.4957049,0.5030628,0.49997988,0.4885567,0.48039073,33.0,42.0,60.0,32.0,56.0,44.0,58.0,31.0,39.0,50.0,32.0,39.0,52.0,36.0,47.0
0.48655048,0.4833539,0.48503372,0.5200568,0.5067171,0.5095457,0.49363196,0.49784282,11.0,14.0,0.0,18.0,16.0,9.0,5.0,9.0,11.0,15.0,19.0,22.0,19.0,5.0,26.0
0.5009941,0.49682572,0.4920936,0.4957049,0.50660217,0.4956252,0.4885567,0.49011144,32.0,57.0,32.0,31.0,49.0,54.0,46.0,54.0,54.0,87.0,69.0,62.0,61.0,70.0,74.0
0.5012598,0.48065227,0.46801764,0.49047923,0.46948993,0.5070566,0.48348922,0.51004124,2.0,4.0,32.0,27.0,17.0,3.0,24.0,17.0,16.0,17.0,21.0,13.0,8.0,14.0,23.0
0.50239724,0.50053775,0.4961251,0.4957049,0.50948143,0.5093072,0.4831572,0.48922634,25.0,25.0,32.0,46.0,63.0,42.0,45.0,36.0,39.0,41.0,63.0,30.0,47.0,68.0,57.0
0.51592475,0.49386138,0.49423543,0.4912586,0.51167244,0.50548184,0.49363196,0.46487403,31.0,31.0,48.0,72.0,51.0,57.0,24.0,13.0,11.0,23.0,15.0,28.0,2.0,26.0,15.0
0.5009941,0.494366,0.4924116,0.4957049,0.50660217,0.4956252,0.4885567,0.4926175,40.0,39.0,46.0,32.0,44.0,59.0,58.0,60.0,48.0,72.0,77.0,72.0,67.0,62.0,68.0
0.4772546,0.4659858,0.47527015,0.50845855,0.45397487,0.5119346,0.48393965,0.5163729,21.0,31.0,39.0,74.0,51.0,58.0,26.0,29.0,6.0,10.0,7.0,6.0,2.0,1.0,14.0
0.50748175,0.495356,0.4513942,0.50374067,0.4655256,0.50711775,0.47812697,0.50671816,36.0,25.0,31.0,68.0,48.0,48.0,19.0,15.0,18.0,28.0,10.0,2.0,7.0,1.0,22.0
0.50095147,0.47720435,0.48987278,0.48720798,0.48068437,0.5093072,0.4885567,0.47623268,23.0,29.0,54.0,48.0,61.0,47.0,60.0,33.0,38.0,32.0,59.0,34.0,32.0,56.0,52.0
0.5035054,0.49682572,0.4920936,0.4957049,0.50660217,0.50250286,0.4885567,0.48706025,33.0,54.0,37.0,38.0,32.0,23.0,69.0,47.0,50.0,69.0,64.0,69.0,66.0,67.0,72.0
0.5009941,0.49206874,0.4920936,0.4957049,0.50660217,0.49952573,0.4885567,0.4926175,46.0,50.0,44.0,42.0,28.0,37.0,52.0,59.0,48.0,84.0,64.0,67.0,68.0,68.0,66.0
0.5009941,0.49206874,0.4920936,0.4957049,0.50660217,0.4956252,0.4885567,0.4926175,49.0,56.0,58.0,40.0,36.0,45.0,51.0,53.0,57.0,82.0,79.0,63.0,67.0,68.0,70.0
0.48822552,0.4892264,0.47777453,0.5026549,0.50969845,0.50479704,0.49416378,0.5078906,18.0,17.0,4.0,4.0,3.0,4.0,24.0,2.0,12.0,14.0,27.0,24.0,17.0,2.0,11.0
0.50095147,0.49682572,0.48987278,0.4957049,0.5027411,0.5093072,0.4885567,0.48922634,23.0,33.0,38.0,42.0,51.0,43.0,44.0,46.0,35.0,53.0,43.0,37.0,40.0,65.0,39.0
0.5009941,0.49682572,0.4924116,0.4957049,0.50745493,0.5023709,0.4885567,0.46527967,28.0,32.0,31.0,56.0,48.0,32.0,51.0,62.0,37.0,40.0,57.0,45.0,45.0,59.0,55.0
0.5035054,0.47885203,0.4924116,0.4854629,0.48622677,0.49731076,0.4885567,0.49762928,45.0,32.0,59.0,32.0,56.0,41.0,45.0,38.0,32.0,48.0,54.0,33.0,31.0,46.0,47.0
0.5097147,0.500565,0.47316366,0.47243592,0.4746981,0.5088108,0.4895913,0.4832094,17.0,28.0,37.0,1.0,16.0,9.0,26.0,25.0,21.0,18.0,25.0,25.0,14.0,16.0,13.0
0.5009941,0.50053775,0.4924116,0.4957049,0.51234764,0.50250286,0.4885567,0.48794535,32.0,31.0,59.0,30.0,28.0,27.0,49.0,52.0,47.0,63.0,80.0,64.0,62.0,74.0,60.0
0.5009941,0.50053775,0.4924116,0.4957049,0.50880826,0.49905556,0.4885567,0.46527967,32.0,31.0,51.0,71.0,90.0,80.0,62.0,60.0,67.0,60.0,69.0,72.0,68.0,78.0,63.0
0.49978986,0.48369354,0.48574755,0.49382332,0.46951792,0.50915784,0.49620643,0.47767854,10.0,11.0,7.0,24.0,17.0,16.0,19.0,6.0,9.0,17.0,19.0,30.0,12.0,19.0,22.0
0.5009941,0.49206874,0.4920936,0.4957049,0.5030628,0.49905556,0.4885567,0.46778572,44.0,53.0,49.0,65.0,68.0,71.0,60.0,86.0,71.0,60.0,60.0,62.0,61.0,80.0,82.0
0.5035054,0.44276315,0.45988923,0.47518942,0.47510928,0.5043866,0.5181583,0.51027703,42.0,17.0,48.0,59.0,48.0,52.0,25.0,15.0,24.0,21.0,29.0,8.0,10.0,28.0,19.0
0.5090446,0.43493915,0.48032597,0.48996842,0.48134866,0.50829464,0.49199498,0.5018567,29.0,1.0,15.0,9.0,9.0,20.0,25.0,8.0,6.0,23.0,1.0,6.0,7.0,3.0,9.0
0.5009941,0.49682572,0.4920936,0.4957049,0.5030628,0.49905556,0.4885567,0.46527967,31.0,47.0,54.0,60.0,71.0,78.0,67.0,65.0,65.0,60.0,82.0,65.0,64.0,63.0,60.0
0.49810556,0.47767124,0.48987278,0.4859365,0.47395378,0.5098414,0.4885567,0.46439457,18.0,44.0,32.0,53.0,45.0,58.0,55.0,33.0,37.0,42.0,45.0,31.0,31.0,46.0,46.0
0.5009941,0.49687776,0.4924116,0.4957049,0.5030628,0.5075281,0.4885567,0.48366416,40.0,39.0,33.0,53.0,52.0,32.0,59.0,59.0,34.0,36.0,68.0,57.0,41.0,31.0,57.0
0.5009941,0.50156724,0.49726337,0.4957049,0.5043736,0.49609765,0.4831572,0.49740192,41.0,21.0,40.0,41.0,72.0,41.0,54.0,67.0,59.0,47.0,69.0,33.0,40.0,57.0,32.0
0.5009941,0.49682572,0.4920936,0.4957049,0.50660217,0.4956252,0.4885567,0.4888724,38.0,42.0,37.0,31.0,45.0,50.0,50.0,68.0,53.0,37.0,45.0,58.0,58.0,58.0,35.0
0.5091314,0.495356,0.49997595,0.48819464,0.4655256,0.50436634,0.48626697,0.497564,34.0,27.0,58.0,74.0,57.0,55.0,18.0,6.0,8.0,7.0,16.0,9.0,18.0,4.0,22.0
0.5009941,0.48080757,0.4920936,0.4957049,0.50660217,0.5048374,0.4885567,0.4926175,41.0,51.0,47.0,22.0,24.0,5.0,52.0,49.0,59.0,86.0,74.0,65.0,63.0,70.0,67.0
0.5194107,0.463139,0.49477184,0.48702583,0.49030998,0.51032585,0.49101916,0.50325084,4.0,4.0,18.0,22.0,26.0,20.0,16.0,4.0,4.0,26.0,0.0,6.0,0.0,25.0,9.0
0.50095147,0.50053775,0.48987278,0.4957049,0.512026,0.5093072,0.4885567,0.48865798,22.0,31.0,53.0,39.0,39.0,47.0,60.0,47.0,32.0,55.0,32.0,35.0,52.0,54.0,36.0
0.5191697,0.49085444,0.47817475,0.46155885,0.49034244,0.49907905,0.4895913,0.46103203,34.0,35.0,49.0,66.0,59.0,49.0,21.0,30.0,10.0,3.0,16.0,21.0,12.0,21.0,10.0
0.5329993,0.48134297,0.5046335,0.46155885,0.47927523,0.50711775,0.48517513,0.4614271,29.0,25.0,44.0,62.0,54.0,49.0,29.0,23.0,0.0,10.0,14.0,19.0,4.0,11.0,23.0
0.5009941,0.49206874,0.4924116,0.4957049,0.5030628,0.49905556,0.4885567,0.46932754,43.0,33.0,83.0,70.0,74.0,73.0,64.0,62.0,64.0,60.0,69.0,73.0,72.0,70.0,85.0
0.50881964,0.46234986,0.44101858,0.4957049,0.47278762,0.4959251,0.45621264,0.48922634,31.0,41.0,51.0,7.0,47.0,53.0,59.0,47.0,48.0,88.0,64.0,67.0,64.0,67.0,72.0
0.49988592,0.4993375,0.48987278,0.4957049,0.5043403,0.5098414,0.4885567,0.47705463,25.0,42.0,32.0,43.0,74.0,38.0,31.0,65.0,51.0,33.0,45.0,53.0,58.0,33.0,46.0
0.5035054,0.47551912,0.49412376,0.50249696,0.46241164,0.5043866,0.47762543,0.46816686,36.0,19.0,43.0,50.0,52.0,46.0,1.0,10.0,29.0,22.0,23.0,29.0,7.0,20.0,28.0
0.5148739,0.4401527,0.5013922,0.47593737,0.48526034,0.5090953,0.48529115,0.4721124,29.0,23.0,37.0,73.0,55.0,47.0,11.0,12.0,2.0,9.0,10.0,6.0,7.0,28.0,24.0
0.5009941,0.49206874,0.4924116,0.48978934,0.50660217,0.49614298,0.4885567,0.4926175,54.0,38.0,52.0,25.0,6.0,60.0,66.0,57.0,59.0,81.0,72.0,70.0,68.0,68.0,64.0
0.5148739,0.4401527,0.5013922,0.4763533,0.5077197,0.5090953,0.48482656,0.50671816,29.0,30.0,57.0,60.0,49.0,59.0,11.0,10.0,7.0,29.0,4.0,2.0,0.0,29.0,19.0
0.5091314,0.48353657,0.4994252,0.48819464,0.4728169,0.5043866,0.50830394,0.49333912,45.0,21.0,57.0,51.0,48.0,56.0,24.0,18.0,13.0,14.0,25.0,13.0,28.0,7.0,20.0
0.51201963,0.4980522,0.4954682,0.49970403,0.5145075,0.4997934,0.47762543,0.46747506,29.0,25.0,30.0,18.0,20.0,11.0,13.0,0.0,19.0,5.0,21.0,25.0,28.0,27.0,14.0
0.5009941,0.49682572,0.4920936,0.4957049,0.5030628,0.49905556,0.4885567,0.46404064,38.0,54.0,63.0,67.0,66.0,68.0,63.0,91.0,65.0,60.0,81.0,64.0,66.0,89.0,81.0
0.5035054,0.48057455,0.49726337,0.4957049,0.507913,0.49797705,0.49012205,0.48307252,44.0,19.0,33.0,49.0,30.0,45.0,41.0,40.0,56.0,52.0,65.0,56.0,39.0,41.0,48.0
0.5009941,0.50053775,0.49726337,0.4957049,0.507913,0.4956252,0.4831572,0.4916099,37.0,18.0,35.0,42.0,35.0,39.0,30.0,71.0,54.0,46.0,52.0,52.0,54.0,53.0,53.0
0.49988592,0.50053775,0.4961251,0.4957049,0.50948143,0.5093072,0.4831572,0.49011144,25.0,25.0,52.0,32.0,74.0,31.0,32.0,62.0,60.0,47.0,35.0,49.0,42.0,51.0,44.0
0.49603593,0.49363115,0.4912907,0.494546,0.49816242,0.50801456,0.48876813,0.49840266,15.0,13.0,24.0,27.0,7.0,20.0,16.0,12.0,14.0,3.0,28.0,15.0,26.0,13.0,3.0
0.5022854,0.49206874,0.4920936,0.4957049,0.50660217,0.4956252,0.4885567,0.4917324,58.0,50.0,54.0,39.0,34.0,54.0,63.0,48.0,52.0,72.0,64.0,74.0,64.0,60.0,71.0
0.5009941,0.49362022,0.4920936,0.4957049,0.50660217,0.5048374,0.4885567,0.4888724,38.0,46.0,59.0,23.0,47.0,6.0,59.0,53.0,53.0,75.0,65.0,70.0,65.0,72.0,73.0
0.4772546,0.43748224,0.48104975,0.4962505,0.49312684,0.5194734,0.47812697,0.51947075,17.0,11.0,22.0,15.0,1.0,23.0,21.0,15.0,20.0,20.0,6.0,9.0,27.0,2.0,1.0
0.49988592,0.50053775,0.4961886,0.4957049,0.51234764,0.50241697,0.4898435,0.46527967,27.0,26.0,41.0,50.0,47.0,38.0,44.0,67.0,46.0,49.0,70.0,50.0,44.0,44.0,46.0
0.5089631,0.48312,0.49412376,0.48819464,0.46500257,0.5043866,0.5089772,0.49310917,41.0,32.0,47.0,66.0,56.0,58.0,29.0,2.0,29.0,2.0,27.0,18.0,27.0,7.0,28.0
0.4804223,0.4988351,0.49561426,0.51041585,0.51303077,0.50735456,0.48666218,0.5047337,17.0,29.0,20.0,22.0,4.0,2.0,28.0,3.0,16.0,4.0,20.0,1.0,2.0,7.0,7.0
0.49810556,0.49573216,0.47274166,0.47243592,0.48681042,0.50906545,0.48976037,0.46672136,16.0,21.0,45.0,18.0,17.0,9.0,19.0,21.0,18.0,0.0,10.0,15.0,14.0,18.0,18.0
0.5009941,0.50053775,0.49726337,0.4957049,0.48815358,0.4986733,0.4831572,0.49335405,34.0,22.0,42.0,45.0,70.0,33.0,53.0,71.0,36.0,43.0,60.0,44.0,35.0,51.0,36.0
0.4975257,0.49682572,0.48987278,0.4957049,0.5062805,0.5094717,0.4885567,0.48265725,23.0,37.0,31.0,47.0,40.0,36.0,52.0,50.0,39.0,35.0,38.0,35.0,38.0,62.0,52.0
0.48505783,0.4765302,0.48594052,0.50745696,0.46544245,0.50637126,0.49295324,0.46165705,21.0,3.0,41.0,10.0,11.0,21.0,8.0,28.0,1.0,6.0,27.0,27.0,4.0,2.0,11.0
0.5009941,0.494366,0.4924116,0.4957049,0.5030628,0.5007365,0.4885567,0.46720248,40.0,36.0,35.0,53.0,72.0,49.0,55.0,50.0,45.0,53.0,33.0,39.0,56.0,46.0,42.0
0.48505783,0.48212093,0.4820834,0.5150485,0.49585694,0.51483387,0.47787735,0.49840266,6.0,18.0,10.0,16.0,27.0,16.0,25.0,9.0,17.0,2.0,13.0,26.0,29.0,2.0,12.0
0.5065521,0.46234986,0.4381119,0.4957049,0.4823811,0.4959251,0.45621264,0.4887822,37.0,36.0,44.0,9.0,53.0,56.0,46.0,49.0,57.0,63.0,62.0,69.0,61.0,69.0,73.0
0.5009941,0.49206874,0.4920936,0.4957049,0.5030628,0.49905556,0.4885567,0.46778572,44.0,58.0,55.0,69.0,72.0,75.0,69.0,81.0,87.0,60.0,63.0,82.0,75.0,83.0,77.0
0.5009941,0.49206874,0.4924116,0.4957049,0.5030628,0.49905556,0.4885567,0.46778572,51.0,40.0,86.0,74.0,81.0,78.0,69.0,85.0,74.0,60.0,99.0,77.0,73.0,94.0,86.0
0.5123323,0.49782827,0.48935658,0.49118364,0.50314504,0.49860153,0.47614756,0.47420713,29.0,36.0,21.0,75.0,45.0,49.0,20.0,18.0,27.0,16.0,19.0,21.0,30.0,17.0,10.0
0.52978367,0.4913863,0.49997595,0.49500805,0.4863689,0.50436634,0.49425325,0.4679322,32.0,35.0,35.0,69.0,56.0,47.0,11.0,11.0,3.0,21.0,16.0,13.0,24.0,14.0,17.0
0.5009941,0.49206874,0.4924116,0.4957049,0.5030628,0.49905556,0.4885567,0.46778572,44.0,35.0,50.0,66.0,78.0,60.0,68.0,70.0,66.0,60.0,73.0,87.0,76.0,94.0,64.0
0.5191697,0.43318373,0.49425626,0.4653357,0.46069834,0.49860153,0.47378948,0.5128447,38.0,42.0,36.0,64.0,50.0,51.0,21.0,21.0,12.0,28.0,28.0,10.0,19.0,24.0,9.0
0.5148739,0.48435903,0.5022829,0.49580458,0.46464026,0.50436634,0.5089772,0.4796106,41.0,23.0,32.0,57.0,58.0,58.0,22.0,9.0,6.0,4.0,17.0,20.0,1.0,26.0,29.0
0.5009941,0.494366,0.4920936,0.4957049,0.5030628,0.49905556,0.4885567,0.46778572,41.0,51.0,69.0,71.0,68.0,86.0,67.0,65.0,75.0,60.0,66.0,75.0,74.0,68.0,87.0
0.5009941,0.49682572,0.4920936,0.4957049,0.5030628,0.49905556,0.4885567,0.46395043,37.0,46.0,87.0,64.0,90.0,84.0,60.0,95.0,77.0,60.0,79.0,72.0,65.0,94.0,87.0
0.51592475,0.49225825,0.4901955,0.5005891,0.4732725,0.50625664,0.48529115,0.5063695,34.0,27.0,45.0,71.0,48.0,57.0,22.0,11.0,9.0,24.0,4.0,9.0,1.0,16.0,15.0
0.5065521,0.46234986,0.43720916,0.4957049,0.4823811,0.5028027,0.45621264,0.48954308,36.0,44.0,36.0,10.0,42.0,24.0,52.0,55.0,53.0,78.0,71.0,68.0,68.0,64.0,66.0
0.5035054,0.50053775,0.49726337,0.4957049,0.5043736,0.49905556,0.4831572,0.47902465,29.0,24.0,51.0,51.0,69.0,45.0,36.0,44.0,36.0,40.0,70.0,40.0,43.0,69.0,48.0
0.5035054,0.50053775,0.49726337,0.4957049,0.5076044,0.49905556,0.4831572,0.47932744,38.0,19.0,44.0,54.0,50.0,43.0,47.0,44.0,59.0,51.0,37.0,40.0,59.0,63.0,47.0
0.48631135,0.48333666,0.49530885,0.5209753,0.50204504,0.5181407,0.4959642,0.50982,13.0,15.0,3.0,27.0,1.0,21.0,4.0,27.0,21.0,7.0,7.0,3.0,5.0,10.0,24.0
0.50888664,0.4893431,0.48674092,0.4962429,0.48138428,0.49860153,0.49047843,0.47475457,28.0,26.0,50.0,70.0,45.0,59.0,13.0,15.0,4.0,11.0,29.0,28.0,3.0,6.0,9.0
0.5009941,0.49206874,0.4920936,0.4957049,0.5030628,0.49905556,0.4885567,0.46778572,54.0,55.0,88.0,65.0,76.0,76.0,63.0,81.0,86.0,60.0,85.0,76.0,64.0,70.0,71.0
0.5009941,0.494366,0.4920936,0.4957049,0.5030628,0.49905556,0.4885567,0.46778572,40.0,54.0,53.0,64.0,83.0,77.0,70.0,95.0,60.0,60.0,74.0,63.0,69.0,64.0,79.0
0.5009941,0.49682572,0.4920936,0.4957049,0.5030628,0.49905556,0.4885567,0.46527967,33.0,57.0,48.0,64.0,61.0,65.0,64.0,87.0,79.0,60.0,99.0,75.0,70.0,75.0,84.0
0.52925426,0.50153977,0.49021262,0.4973982,0.50001454,0.51078594,0.49620643,0.45772558,2.0,22.0,30.0,12.0,5.0,21.0,10.0,8.0,1.0,29.0,25.0,17.0,23.0,13.0,9.0
0.50239724,0.49785525,0.4908761,0.4957049,0.50660217,0.5012668,0.4885567,0.48706025,27.0,44.0,55.0,40.0,33.0,55.0,53.0,41.0,49.0,39.0,72.0,49.0,46.0,63.0,33.0
0.4789823,0.4659858,0.4807347,0.52811384,0.45580217,0.5159109,0.4867845,0.51972115,8.0,27.0,39.0,24.0,16.0,12.0,17.0,23.0,22.0,30.0,0.0,8.0,28.0,4.0,9.0
0.5009941,0.49206874,0.4924116,0.4957049,0.5030628,0.49731076,0.4885567,0.4926175,43.0,39.0,58.0,41.0,60.0,53.0,39.0,62.0,50.0,56.0,46.0,47.0,36.0,50.0,40.0
0.5017187,0.45174643,0.49684992,0.46868107,0.45903403,0.5167006,0.48025134,0.5144611,0.0,5.0,37.0,11.0,4.0,24.0,16.0,15.0,13.0,2.0,21.0,8.0,2.0,18.0,27.0
0.4819048,0.4943429,0.4872837,0.5109432,0.4898465,0.5074678,0.48163798,0.51098895,20.0,30.0,50.0,63.0,56.0,60.0,23.0,3.0,16.0,28.0,10.0,12.0,10.0,1.0,8.0
0.5009941,0.49206874,0.4920936,0.4957049,0.50660217,0.4956252,0.4885567,0.4926175,54.0,46.0,54.0,41.0,34.0,53.0,59.0,56.0,58.0,74.0,69.0,70.0,62.0,67.0,74.0
0.5035054,0.47652233,0.4924116,0.48720798,0.49038348,0.4990057,0.4885567,0.46690062,40.0,41.0,35.0,56.0,70.0,32.0,52.0,31.0,46.0,51.0,65.0,54.0,32.0,46.0,51.0
0.5009941,0.49682572,0.4924116,0.4957049,0.50660217,0.5013425,0.4885567,0.48794535,28.0,39.0,52.0,42.0,32.0,33.0,44.0,66.0,41.0,51.0,36.0,34.0,54.0,43.0,35.0
0.5009941,0.5005897,0.503046,0.4957049,0.507913,0.49997988,0.49012205,0.4812447,42.0,16.0,31.0,48.0,33.0,49.0,45.0,55.0,44.0,50.0,61.0,41.0,45.0,35.0,38.0
0.50340915,0.492909,0.49350724,0.47835147,0.47592053,0.5002925,0.48612,0.49182895,35.0,24.0,53.0,65.0,47.0,57.0,11.0,24.0,22.0,30.0,14.0,29.0,25.0,12.0,12.0
0.5009941,0.49682572,0.4920936,0.4957049,0.5030628,0.49905556,0.4885567,0.46527967,36.0,53.0,51.0,69.0,98.0,85.0,69.0,90.0,75.0,60.0,63.0,62.0,77.0,62.0,76.0
0.50095147,0.5030495,0.48974445,0.4957049,0.512026,0.5093072,0.48871872,0.46222848,23.0,27.0,60.0,55.0,34.0,44.0,43.0,31.0,50.0,48.0,33.0,30.0,39.0,38.0,44.0
0.5035054,0.49206874,0.4924116,0.4957049,0.5030628,0.49952573,0.4885567,0.4917324,45.0,37.0,44.0,34.0,70.0,36.0,38.0,37.0,49.0,53.0,54.0,47.0,54.0,70.0,36.0
0.5035054,0.50053775,0.4924116,0.4957049,0.50880826,0.49997988,0.4885567,0.48922634,30.0,31.0,35.0,32.0,54.0,41.0,52.0,39.0,41.0,40.0,44.0,56.0,54.0,43.0,37.0
0.5009941,0.47806278,0.4924116,0.4957049,0.51234764,0.49731076,0.48871872,0.4941593,45.0,28.0,59.0,38.0,41.0,40.0,50.0,65.0,43.0,57.0,64.0,34.0,38.0,46.0,53.0
0.5127925,0.4985361,0.48097154,0.47954735,0.4859077,0.5086355,0.49295324,0.47665605,27.0,21.0,27.0,26.0,7.0,4.0,5.0,23.0,26.0,11.0,1.0,17.0,4.0,16.0,6.0
0.5194324,0.4948687,0.4898019,0.5083747,0.49124154,0.5019175,0.47766602,0.5110269,21.0,16.0,58.0,71.0,51.0,52.0,11.0,4.0,14.0,22.0,27.0,9.0,5.0,17.0,2.0
0.5027556,0.48584875,0.5015419,0.4854629,0.4884975,0.5090953,0.47878364,0.50148463,32.0,25.0,24.0,68.0,59.0,58.0,2.0,26.0,26.0,30.0,11.0,11.0,10.0,14.0,19.0
0.4953892,0.49718037,0.48847786,0.5026549,0.50786865,0.50508755,0.48302108,0.5078906,16.0,8.0,11.0,15.0,19.0,3.0,17.0,0.0,23.0,28.0,20.0,15.0,15.0,10.0,3.0
0.5000855,0.4401527,0.48461714,0.49970528,0.48960328,0.5205842,0.47377157,0.51947075,2.0,15.0,9.0,28.0,4.0,25.0,4.0,16.0,19.0,1.0,5.0,2.0,4.0,22.0,8.0
0.5009941,0.49682572,0.4920936,0.4957049,0.5030628,0.49905556,0.4885567,0.46527967,36.0,49.0,65.0,72.0,71.0,62.0,62.0,94.0,89.0,60.0,95.0,72.0,75.0,93.0,87.0
0.48655048,0.4637228,0.4879917,0.52827656,0.4477722,0.514339,0.4968789,0.5126984,1.0,3.0,7.0,12.0,28.0,5.0,17.0,27.0,27.0,29.0,14.0,4.0,19.0,0.0,29.0
0.50748175,0.48165315,0.4513942,0.5084425,0.46950784,0.50711775,0.47787735,0.4948136,34.0,23.0,34.0,51.0,57.0,52.0,21.0,15.0,17.0,21.0,2.0,12.0,3.0,4.0,21.0
0.5009941,0.49206874,0.4920936,0.4957049,0.50660217,0.50250286,0.4885567,0.4926175,53.0,46.0,34.0,24.0,32.0,16.0,55.0,49.0,56.0,73.0,66.0,61.0,69.0,74.0,65.0
0.5009941,0.49206874,0.4920936,0.4957049,0.5030628,0.49905556,0.4885567,0.46778572,51.0,51.0,50.0,73.0,61.0,61.0,62.0,66.0,82.0,60.0,86.0,81.0,77.0,75.0,73.0
0.5009941,0.49206874,0.4920936,0.4957049,0.5030628,0.49905556,0.4885567,0.46778572,57.0,55.0,84.0,70.0,97.0,80.0,66.0,83.0,75.0,60.0,76.0,69.0,66.0,64.0,69.0
0.5186276,0.4904953,0.49135137,0.4904599,0.49150762,0.49860153,0.49047843,0.4625652,34.0,25.0,48.0,73.0,53.0,51.0,28.0,5.0,9.0,10.0,29.0,23.0,23.0,24.0,12.0
0.51475316,0.4343845,0.49616793,0.486407,0.47317877,0.51026726,0.47377157,0.5137036,2.0,4.0,21.0,15.0,14.0,18.0,29.0,13.0,23.0,6.0,19.0,10.0,29.0,29.0,6.0
0.5194324,0.44406164,0.47527015,0.46155885,0.45493466,0.5087159,0.47663432,0.51972115,17.0,34.0,50.0,69.0,48.0,48.0,2.0,20.0,9.0,9.0,14.0,8.0,13.0,23.0,4.0
0.5009941,0.49682572,0.4924116,0.4957049,0.5030628,0.49905556,0.4885567,0.46527967,34.0,39.0,67.0,64.0,92.0,72.0,66.0,94.0,89.0,60.0,68.0,79.0,79.0,81.0,69.0
0.5009941,0.49206874,0.4924116,0.4957049,0.5030628,0.49905556,0.4885567,0.46778572,59.0,38.0,52.0,62.0,74.0,69.0,61.0,69.0,74.0,60.0,67.0,74.0,72.0,64.0,76.0
0.4923344,0.4993375,0.48987278,0.5031157,0.5027411,0.5093072,0.4885567,0.47963703,16.0,34.0,50.0,37.0,68.0,47.0,47.0,49.0,34.0,50.0,58.0,58.0,56.0,36.0,56.0
0.5009941,0.49206874,0.4924116,0.4957049,0.5030628,0.49905556,0.4885567,0.46778572,57.0,34.0,66.0,68.0,65.0,61.0,61.0,95.0,75.0,60.0,95.0,64.0,60.0,98.0,86.0
0.5065521,0.46699476,0.44101858,0.4957049,0.4823811,0.5028027,0.45621264,0.4926175,46.0,40.0,57.0,8.0,40.0,19.0,65.0,57.0,53.0,66.0,78.0,65.0,62.0,70.0,75.0
0.5065521,0.46699476,0.4381119,0.4957049,0.4823811,0.5048374,0.45621264,0.4941593,51.0,33.0,34.0,7.0,53.0,6.0,69.0,49.0,49.0,65.0,74.0,61.0,65.0,63.0,64.0
0.50477916,0.4739643,0.46830276,0.50035274,0.46806517,0.50959474,0.47343335,0.5017594,31.0,42.0,18.0,57.0,46.0,52.0,15.0,11.0,28.0,28.0,6.0,11.0,4.0,21.0,23.0
0.5069555,0.495356,0.48714426,0.48028684,0.4845635,0.5002925,0.48626697,0.50325084,28.0,19.0,51.0,74.0,52.0,50.0,23.0,10.0,5.0,3.0,8.0,5.0,14.0,9.0,8.0
0.48655048,0.4775925,0.46088564,0.523267,0.44779488,0.50944513,0.5026109,0.5112558,4.0,14.0,7.0,6.0,6.0,18.0,20.0,22.0,22.0,26.0,8.0,16.0,4.0,6.0,26.0
0.52141255,0.49350223,0.49664825,0.494546,0.50195944,0.5050826,0.47762543,0.4697507,22.0,24.0,47.0,53.0,53.0,54.0,16.0,9.0,25.0,15.0,30.0,17.0,26.0,29.0,6.0
0.50748175,0.4791716,0.49234813,0.5145323,0.46727923,0.513126,0.49363196,0.49307078,29.0,24.0,33.0,15.0,10.0,17.0,17.0,2.0,10.0,20.0,6.0,23.0,5.0,6.0,21.0
0.51305187,0.47815984,0.4463779,0.46155885,0.4626215,0.50436634,0.44467556,0.5055932,43.0,42.0,20.0,66.0,48.0,52.0,17.0,30.0,8.0,24.0,16.0,11.0,2.0,19.0,27.0
0.5035054,0.49206874,0.4920936,0.4957049,0.5062936,0.50250286,0.4885567,0.4917324,45.0,57.0,47.0,33.0,50.0,19.0,63.0,46.0,52.0,64.0,69.0,72.0,61.0,66.0,64.0
0.5017187,0.49171627,0.4844438,0.5066503,0.4795384,0.51279455,0.47762543,0.4625226,20.0,18.0,43.0,0.0,8.0,12.0,1.0,12.0,17.0,28.0,20.0,15.0,9.0,23.0,19.0
0.5033828,0.4844754,0.45742276,0.49274105,0.48960328,0.5145847,0.48515508,0.51947075,12.0,20.0,1.0,24.0,0.0,22.0,5.0,20.0,3.0,21.0,24.0,1.0,5.0,26.0,6.0
0.4962622,0.4920633,0.47199303,0.48092487,0.46830615,0.5108007,0.4895913,0.49840266,15.0,17.0,41.0,9.0,27.0,0.0,9.0,23.0,10.0,9.0,13.0,16.0,24.0,13.0,12.0
0.51305187,0.4794311,0.48229605,0.4806164,0.4930042,0.5108211,0.49477604,0.46188185,16.0,29.0,19.0,51.0,57.0,56.0,11.0,17.0,1.0,5.0,24.0,19.0,30.0,23.0,25.0
0.5009941,0.47806278,0.4924116,0.4957049,0.51234764,0.49952573,0.4885567,0.4941593,50.0,31.0,50.0,28.0,34.0,37.0,59.0,50.0,59.0,75.0,65.0,70.0,67.0,70.0,64.0
0.50095147,0.49682572,0.48987278,0.4957049,0.5062805,0.5098414,0.4885567,0.46439457,23.0,42.0,30.0,52.0,43.0,58.0,36.0,38.0,41.0,57.0,68.0,37.0,52.0,46.0,58.0
0.49723387,0.47788054,0.48667067,0.4940188,0.4967706,0.51281166,0.48353451,0.50424904,0.0,24.0,10.0,12.0,24.0,4.0,3.0,3.0,29.0,30.0,4.0,9.0,23.0,15.0,4.0
0.50748175,0.47955105,0.5046335,0.4935049,0.4697361,0.50829655,0.4978526,0.49134266,29.0,18.0,24.0,19.0,16.0,24.0,30.0,22.0,25.0,4.0,7.0,18.0,17.0,3.0,25.0
0.5035054,0.44276315,0.48306462,0.47029588,0.4761873,0.5043866,0.47377157,0.497564,33.0,42.0,50.0,63.0,47.0,52.0,3.0,5.0,19.0,18.0,25.0,0.0,19.0,23.0,20.0
0.5127925,0.5015288,0.47970793,0.5038363,0.5107885,0.505637,0.49065882,0.47770685,23.0,14.0,37.0,5.0,27.0,3.0,5.0,9.0,13.0,22.0,27.0,22.0,14.0,16.0,6.0
0.5127179,0.4904137,0.47770506,0.48884308,0.4796724,0.5002925,0.49295324,0.49185622,28.0,27.0,32.0,74.0,51.0,57.0,30.0,29.0,18.0,1.0,14.0,17.0,3.0,0.0,5.0
0.5035054,0.4665532,0.4920936,0.4957049,0.50660217,0.5028027,0.4885567,0.4917324,44.0,47.0,51.0,21.0,28.0,29.0,50.0,46.0,51.0,88.0,78.0,71.0,66.0,61.0,65.0
0.5035054,0.5030495,0.4924116,0.4957049,0.51234764,0.49731076,0.4885567,0.48039073,29.0,29.0,39.0,31.0,48.0,59.0,49.0,37.0,48.0,32.0,30.0,44.0,36.0,35.0,59.0
0.5194324,0.48311138,0.49343136,0.48702583,0.50187016,0.5082371,0.47377157,0.5110269,11.0,6.0,31.0,16.0,28.0,20.0,20.0,10.0,17.0,21.0,23.0,6.0,13.0,28.0,2.0
0.49603593,0.4880401,0.48160654,0.48498595,0.48379216,0.5144023,0.47762543,0.4981358,16.0,23.0,27.0,65.0,56.0,49.0,19.0,14.0,24.0,5.0,12.0,13.0,28.0,13.0,17.0
0.5009941,0.49682572,0.4920936,0.4957049,0.5030628,0.49905556,0.4885567,0.46395043,37.0,57.0,65.0,65.0,66.0,76.0,67.0,94.0,64.0,60.0,77.0,79.0,74.0,79.0,68.0
0.5035054,0.47932506,0.47907886,0.49267858,0.49034244,0.5043866,0.47614756,0.46816686,36.0,39.0,43.0,66.0,52.0,46.0,24.0,18.0,26.0,2.0,28.0,26.0,7.0,27.0,17.0
0.5009941,0.50156724,0.49726337,0.4957049,0.507913,0.49995118,0.4831572,0.47685856,32.0,22.0,57.0,50.0,35.0,38.0,60.0,72.0,55.0,39.0,48.0,31.0,55.0,58.0,31.0
0.5127925,0.4980733,0.48799753,0.5038363,0.50349593,0.50786644,0.47856772,0.50187963,15.0,28.0,39.0,16.0,21.0,4.0,19.0,6.0,20.0,25.0,22.0,11.0,9.0,15.0,9.0
0.48655048,0.48317885,0.49014917,0.50922245,0.5067171,0.50641924,0.48346898,0.515352,18.0,14.0,2.0,21.0,16.0,5.0,26.0,9.0,29.0,1.0,12.0,17.0,12.0,5.0,28.0
0.50881964,0.46699476,0.44011584,0.4957049,0.4823811,0.4959251,0.45621264,0.4917324,49.0,42.0,53.0,2.0,56.0,51.0,62.0,47.0,51.0,62.0,69.0,66.0,67.0,74.0,72.0
0.49336916,0.4697576,0.47680956,0.47243592,0.45698643,0.5130364,0.4665212,0.5062841,12.0,12.0,38.0,10.0,13.0,25.0,9.0,20.0,18.0,20.0,22.0,11.0,11.0,29.0,24.0
0.4785006,0.4659858,0.48024407,0.51755315,0.46173736,0.5107496,0.4968789,0.50449234,19.0,7.0,39.0,23.0,8.0,16.0,17.0,22.0,12.0,7.0,2.0,8.0,4.0,8.0,19.0
0.5035054,0.49807805,0.49726337,0.4957049,0.48815358,0.49731076,0.49012205,0.46844244,41.0,25.0,44.0,59.0,59.0,50.0,45.0,44.0,38.0,51.0,68.0,45.0,35.0,47.0,46.0
0.5009941,0.49682572,0.4920936,0.4957049,0.5030628,0.49905556,0.4885567,0.46527967,33.0,43.0,57.0,63.0,72.0,67.0,66.0,70.0,75.0,60.0,87.0,76.0,72.0,81.0,64.0
0.50095147,0.5030495,0.5046695,0.4957049,0.50848657,0.5093072,0.49012205,0.47161192,22.0,21.0,47.0,47.0,67.0,52.0,36.0,46.0,45.0,31.0,46.0,42.0,59.0,32.0,56.0
0.5009941,0.49206874,0.4924116,0.4957049,0.5030628,0.49905556,0.4885567,0.46778572,55.0,35.0,66.0,61.0,70.0,84.0,62.0,97.0,85.0,60.0,62.0,62.0,61.0,89.0,81.0
0.48655048,0.4856309,0.4802331,0.4910901,0.47273064,0.5156337,0.49351215,0.49763444,9.0,1.0,19.0,13.0,14.0,24.0,29.0,7.0,13.0,28.0,5.0,30.0,19.0,9.0,24.0
0.5009941,0.46436805,0.49150887,0.48978934,0.5182767,0.49644288,0.47827065,0.48794535,36.0,55.0,57.0,19.0,8.0,44.0,46.0,54.0,50.0,61.0,76.0,67.0,62.0,68.0,73.0
0.49571812,0.4890875,0.47527015,0.47144517,0.48035526,0.5040633,0.4895913,0.49182895,26.0,40.0,39.0,73.0,55.0,46.0,7.0,26.0,12.0,1.0,29.0,22.0,15.0,10.0,6.0
0.51296264,0.44138822,0.49383688,0.48022386,0.45969036,0.49860153,0.48393965,0.5128447,32.0,43.0,47.0,49.0,58.0,47.0,7.0,28.0,10.0,13.0,20.0,8.0,18.0,4.0,3.0
0.51201963,0.43318373,0.49350724,0.4854629,0.4601635,0.50601214,0.47378948,0.5128447,38.0,24.0,59.0,61.0,48.0,50.0,27.0,29.0,27.0,18.0,2.0,7.0,28.0,26.0,14.0
0.5009941,0.49206874,0.4920936,0.4957049,0.5030628,0.49905556,0.4885567,0.46778572,55.0,47.0,51.0,74.0,81.0,67.0,69.0,96.0,75.0,60.0,90.0,72.0,62.0,87.0,63.0
0.5164327,0.43318373,0.49350724,0.46155885,0.4601635,0.49860153,0.47378948,0.5128447,35.0,25.0,21.0,63.0,50.0,59.0,29.0,29.0,11.0,2.0,21.0,7.0,26.0,27.0,2.0
0.48792195,0.48123306,0.48514625,0.5255689,0.45853296,0.51413524,0.49352458,0.51315427,5.0,12.0,5.0,2.0,6.0,12.0,13.0,15.0,6.0,24.0,28.0,11.0,25.0,1.0,26.0
0.49371955,0.50053775,0.47506508,0.4957049,0.50848657,0.5093072,0.49012205,0.47902465,19.0,20.0,46.0,48.0,74.0,52.0,33.0,61.0,30.0,46.0,39.0,30.0,59.0,45.0,55.0
0.51318777,0.49225825,0.4972493,0.4695902,0.47882035,0.5090953,0.52023673,0.4996969,40.0,18.0,19.0,60.0,60.0,58.0,12.0,7.0,14.0,23.0,12.0,8.0,13.0,18.0,18.0
0.4853272,0.49761102,0.44976184,0.5092473,0.4930244,0.5115797,0.49259618,0.46512288,16.0,2.0,38.0,4.0,0.0,26.0,29.0,11.0,3.0,28.0,18.0,15.0,5.0,8.0,7.0
0.50881964,0.4660162,0.44573224,0.4957049,0.4823811,0.5028027,0.45621264,0.4917324,56.0,49.0,40.0,14.0,25.0,11.0,68.0,46.0,55.0,76.0,76.0,65.0,69.0,68.0,71.0
0.5009941,0.49206874,0.4920936,0.4957049,0.5030628,0.49905556,0.4885567,0.46778572,49.0,52.0,73.0,72.0,70.0,80.0,70.0,87.0,64.0,60.0,64.0,65.0,79.0,94.0,64.0
0.5146425,0.47855738,0.5015419,0.46155885,0.49191412,0.50959474,0.48517513,0.48252934,42.0,20.0,20.0,53.0,46.0,58.0,3.0,29.0,2.0,24.0,9.0,18.0,27.0,19.0,30.0
0.49427858,0.490525,0.48108983,0.4854629,0.48978418,0.50843424,0.4895913,0.49357176,23.0,37.0,54.0,64.0,57.0,48.0,14.0,21.0,28.0,5.0,2.0,28.0,22.0,14.0,8.0
0.4923344,0.49785525,0.48987278,0.5031157,0.5027411,0.5098414,0.4885567,0.46527967,17.0,40.0,41.0,60.0,54.0,30.0,32.0,56.0,39.0,55.0,49.0,46.0,50.0,60.0,31.0
0.5009941,0.49682572,0.4920936,0.4957049,0.5030628,0.49905556,0.4885567,0.46527967,30.0,50.0,78.0,64.0,88.0,73.0,69.0,79.0,83.0,60.0,61.0,87.0,76.0,61.0,63.0
0.5133501,0.47880024,0.4734234,0.46155885,0.46308246,0.50788,0.48517513,0.46188185,17.0,20.0,15.0,15.0,18.0,26.0,19.0,29.0,6.0,27.0,1.0,22.0,0.0,21.0,27.0
0.5009941,0.494366,0.4924116,0.4957049,0.50660217,0.4956252,0.4885567,0.4926175,40.0,34.0,43.0,35.0,34.0,52.0,44.0,63.0,35.0,54.0,47.0,35.0,49.0,56.0,57.0
0.5009941,0.49206874,0.4920936,0.4957049,0.5030628,0.49905556,0.4885567,0.46778572,57.0,58.0,68.0,62.0,82.0,79.0,68.0,63.0,79.0,60.0,75.0,77.0,61.0,71.0,70.0
0.5035054,0.49206874,0.4920936,0.48978934,0.50660217,0.502355,0.4885567,0.4917324,58.0,57.0,46.0,43.0,1.0,10.0,54.0,45.0,50.0,61.0,72.0,71.0,67.0,75.0,66.0
0.5035054,0.494366,0.4924116,0.4957049,0.5030628,0.4956252,0.4885567,0.4932742,40.0,33.0,57.0,38.0,53.0,42.0,49.0,45.0,58.0,76.0,77.0,71.0,70.0,77.0,72.0
0.5022854,0.47806278,0.4924116,0.48978934,0.51234764,0.49841082,0.4885567,0.4932742,51.0,31.0,33.0,38.0,3.0,38.0,46.0,48.0,54.0,79.0,61.0,61.0,60.0,73.0,72.0
0.5009941,0.49682572,0.4924116,0.4957049,0.5030628,0.4956252,0.4885567,0.49011144,29.0,39.0,36.0,46.0,61.0,49.0,40.0,63.0,33.0,38.0,75.0,32.0,42.0,71.0,39.0
0.5194324,0.44406164,0.47527015,0.46155885,0.45626134,0.50951654,0.47378948,0.5128447,23.0,30.0,35.0,72.0,50.0,51.0,19.0,24.0,7.0,26.0,10.0,1.0,17.0,29.0,7.0
0.5035054,0.49682572,0.4920936,0.4957049,0.504079,0.49731076,0.4885567,0.4638262,35.0,42.0,51.0,58.0,41.0,40.0,38.0,36.0,47.0,47.0,50.0,60.0,35.0,66.0,57.0
0.5009941,0.504079,0.49863458,0.4957049,0.48259708,0.49731076,0.49012205,0.4851325,28.0,21.0,48.0,47.0,53.0,54.0,50.0,74.0,37.0,52.0,46.0,37.0,34.0,39.0,32.0
0.5009941,0.46436805,0.49150887,0.4957049,0.47278762,0.5028027,0.47827065,0.48794535,31.0,56.0,48.0,19.0,27.0,12.0,49.0,57.0,55.0,63.0,75.0,74.0,64.0,64.0,65.0
0.5106528,0.49347085,0.48529267,0.49681458,0.49994314,0.49860153,0.47614756,0.4728171,28.0,43.0,22.0,55.0,50.0,57.0,18.0,2.0,29.0,19.0,28.0,12.0,28.0,18.0,3.0
0.5074183,0.49279913,0.48509747,0.49604094,0.49759278,0.5002925,0.50399137,0.48939478,39.0,33.0,19.0,52.0,58.0,55.0,24.0,8.0,20.0,6.0,3.0,25.0,9.0,17.0,13.0
0.50748175,0.48586237,0.4987899,0.48287612,0.48847643,0.50711775,0.49047843,0.48813587,30.0,27.0,35.0,49.0,54.0,48.0,11.0,2.0,4.0,4.0,9.0,26.0,28.0,4.0,17.0
0.5009941,0.49682572,0.4920936,0.4957049,0.5030628,0.49905556,0.4885567,0.46527967,31.0,46.0,86.0,67.0,72.0,68.0,65.0,80.0,75.0,60.0,89.0,83.0,76.0,77.0,72.0
0.5074183,0.4401527,0.48461714,0.46994776,0.48298058,0.5123702,0.5091707,0.5182463,45.0,32.0,22.0,61.0,49.0,48.0,15.0,13.0,20.0,12.0,1.0,1.0,16.0,22.0,13.0
0.5022854,0.4619083,0.48036915,0.4957049,0.4823811,0.49771145,0.47100854,0.4917324,42.0,37.0,33.0,17.0,24.0,38.0,59.0,48.0,49.0,78.0,79.0,65.0,70.0,79.0,73.0
0.5035054,0.49002114,0.49128103,0.50045377,0.5120462,0.5043866,0.47614756,0.46816686,33.0,44.0,25.0,68.0,48.0,51.0,4.0,8.0,29.0,19.0,29.0,21.0,9.0,27.0,17.0
0.49810556,0.4993375,0.48987278,0.5031157,0.5027411,0.5093072,0.4885567,0.47963703,17.0,33.0,49.0,36.0,69.0,58.0,58.0,45.0,49.0,56.0,53.0,30.0,36.0,35.0,39.0
0.5009941,0.49682572,0.4920936,0.4957049,0.5030628,0.49905556,0.4885567,0.46527967,31.0,48.0,59.0,63.0,75.0,71.0,61.0,71.0,84.0,60.0,66.0,71.0,66.0,63.0,63.0
0.4923344,0.4993375,0.48987278,0.5031157,0.5027411,0.5098414,0.4885567,0.46944153,16.0,39.0,56.0,56.0,66.0,42.0,56.0,64.0,37.0,47.0,34.0,53.0,37.0,36.0,39.0
0.5035054,0.5030495,0.503046,0.4957049,0.507913,0.50585365,0.49012205,0.4712417,38.0,16.0,52.0,50.0,34.0,32.0,58.0,31.0,31.0,31.0,45.0,30.0,45.0,34.0,55.0
0.5191697,0.4931637,0.49407282,0.46155885,0.49034244,0.49860153,0.4895913,0.4625652,35.0,30.0,58.0,50.0,60.0,45.0,7.0,20.0,8.0,24.0,25.0,25.0,21.0,23.0,10.0
0.49933094,0.49344227,0.4887895,0.49260414,0.48022345,0.5065082,0.48729026,0.4941824,34.0,42.0,40.0,71.0,55.0,47.0,3.0,2.0,14.0,13.0,2.0,19.0,19.0,12.0,15.0
0.5009941,0.46188408,0.49191016,0.4854629,0.4733577,0.49731076,0.4885567,0.50070566,43.0,30.0,31.0,46.0,57.0,48.0,38.0,56.0,32.0,53.0,50.0,31.0,30.0,49.0,43.0
0.51592475,0.4806015,0.4961431,0.4904599,0.5114418,0.50105,0.5089772,0.4911691,44.0,25.0,44.0,74.0,49.0,54.0,12.0,5.0,14.0,9.0,22.0,28.0,19.0,30.0,15.0
0.51475316,0.5010593,0.46247986,0.4653357,0.47863844,0.51377183,0.4895913,0.46756113,15.0,10.0,18.0,14.0,3.0,27.0,19.0,25.0,12.0,20.0,19.0,23.0,25.0,24.0,8.0
0.511313,0.493133,0.47770506,0.4793308,0.4796724,0.5002925,0.48828492,0.4719394,36.0,29.0,45.0,59.0,60.0,48.0,2.0,27.0,6.0,25.0,11.0,14.0,12.0,1.0,11.0
0.5009941,0.4781884,0.50580776,0.4854629,0.4695103,0.5043866,0.49012205,0.47236562,35.0,25.0,31.0,59.0,69.0,50.0,35.0,53.0,57.0,56.0,33.0,57.0,31.0,31.0,60.0
0.5091314,0.49740613,0.48894644,0.48502037,0.49211204,0.5002925,0.49351215,0.4961166,32.0,31.0,32.0,50.0,58.0,51.0,4.0,7.0,13.0,18.0,14.0,21.0,14.0,8.0,4.0
0.5009941,0.49206874,0.4924116,0.4957049,0.50660217,0.5045375,0.4885567,0.4926175,50.0,37.0,30.0,38.0,27.0,8.0,68.0,56.0,52.0,66.0,60.0,61.0,70.0,66.0,66.0
0.5009941,0.49206874,0.4924116,0.4957049,0.5030628,0.49905556,0.4885567,0.46778572,54.0,41.0,71.0,71.0,92.0,71.0,62.0,78.0,68.0,60.0,75.0,70.0,69.0,85.0,70.0
0.5009941,0.49206874,0.4920936,0.4957049,0.5030628,0.49905556,0.4885567,0.46778572,57.0,56.0,72.0,70.0,70.0,83.0,64.0,94.0,70.0,60.0,74.0,71.0,64.0,63.0,75.0
0.49810556,0.49682572,0.48987278,0.5031157,0.5027411,0.5093072,0.4885567,0.46439457,16.0,34.0,49.0,50.0,56.0,43.0,54.0,33.0,36.0,35.0,72.0,35.0,40.0,64.0,48.0
0.5035054,0.49206874,0.4920936,0.4957049,0.50660217,0.4956252,0.4885567,0.4917324,58.0,53.0,43.0,29.0,36.0,43.0,50.0,47.0,45.0,78.0,78.0,70.0,70.0,62.0,74.0
0.49810556,0.47645852,0.492288,0.50231016,0.4609575,0.507853,0.47762543,0.46524706,19.0,12.0,41.0,22.0,2.0,20.0,3.0,3.0,23.0,9.0,1.0,17.0,1.0,22.0,27.0
0.5035054,0.4614172,0.49726337,0.48720798,0.4695103,0.49731076,0.4831572,0.48307252,44.0,15.0,50.0,56.0,47.0,58.0,56.0,44.0,36.0,43.0,62.0,45.0,32.0,53.0,44.0
0.5192847,0.49515244,0.49419138,0.494546,0.503721,0.49907905,0.49465826,0.45695198,28.0,30.0,36.0,67.0,59.0,58.0,19.0,2.0,4.0,7.0,16.0,15.0,21.0,27.0,3.0
0.4975257,0.49682572,0.48987278,0.4957049,0.5027411,0.5098414,0.4885567,0.49011144,22.0,43.0,46.0,34.0,60.0,36.0,58.0,58.0,60.0,35.0,66.0,36.0,54.0,52.0,44.0
0.48655048,0.4858436,0.49453717,0.515229,0.4679972,0.5062266,0.47787735,0.5184504,18.0,12.0,27.0,23.0,29.0,14.0,29.0,6.0,17.0,7.0,8.0,29.0,2.0,1.0,26.0
0.5148739,0.46855584,0.5087247,0.48316157,0.4742233,0.5090953,0.5091707,0.4911691,45.0,26.0,41.0,62.0,58.0,57.0,23.0,13.0,9.0,12.0,13.0,28.0,20.0,26.0,23.0
0.49810556,0.49785525,0.48987278,0.49617848,0.5027411,0.5098414,0.4885567,0.47623268,18.0,40.0,45.0,48.0,70.0,57.0,58.0,44.0,39.0,45.0,42.0,43.0,52.0,55.0,31.0
0.5161875,0.49058867,0.47527015,0.46155885,0.4737126,0.51193035,0.4918202,0.5099906,23.0,41.0,40.0,72.0,55.0,50.0,2.0,27.0,8.0,0.0,1.0,11.0,1.0,15.0,15.0
0.50125307,0.44138822,0.5015419,0.46910137,0.4601635,0.5043866,0.48166004,0.49586314,34.0,21.0,29.0,57.0,55.0,50.0,24.0,21.0,13.0,14.0,24.0,2.0,19.0,11.0,19.0
0.5192847,0.43318373,0.49407282,0.46651328,0.46209505,0.5011541,0.47378948,0.5182463,42.0,27.0,46.0,61.0,57.0,58.0,17.0,19.0,5.0,16.0,5.0,7.0,18.0,24.0,11.0
0.4923344,0.49682572,0.48987278,0.5031157,0.5027411,0.5093072,0.4885567,0.49011144,16.0,34.0,40.0,34.0,74.0,58.0,50.0,50.0,38.0,49.0,31.0,45.0,53.0,52.0,47.0
0.5205157,0.4883128,0.49135137,0.5059707,0.4904441,0.50329435,0.49363196,0.48607725,24.0,22.0,47.0,70.0,59.0,55.0,2.0,1.0,11.0,7.0,29.0,17.0,5.0,15.0,2.0
0.5009941,0.4665532,0.45945948,0.4957049,0.4823811,0.4959251,0.45621264,0.4926175,47.0,44.0,35.0,16.0,26.0,46.0,61.0,59.0,45.0,76.0,70.0,63.0,61.0,68.0,72.0
0.50278807,0.49209404,0.501151,0.49362287,0.49978727,0.50973177,0.48943707,0.48412156,24.0,12.0,4.0,20.0,7.0,15.0,13.0,23.0,18.0,8.0,21.0,22.0,22.0,29.0,19.0
0.49317297,0.48145574,0.48830917,0.51052725,0.48911446,0.5086408,0.49425325,0.49667028,21.0,36.0,52.0,55.0,56.0,55.0,12.0,6.0,8.0,6.0,3.0,13.0,0.0,10.0,8.0
0.50408983,0.49290058,0.48622674,0.49060142,0.49150762,0.49949542,0.5080363,0.4933664,45.0,17.0,39.0,59.0,48.0,53.0,8.0,9.0,17.0,12.0,25.0,18.0,9.0,10.0,3.0
0.5009941,0.49682572,0.4924116,0.4957049,0.50391555,0.49905556,0.4885567,0.46527967,34.0,32.0,58.0,64.0,79.0,64.0,69.0,74.0,63.0,60.0,75.0,78.0,69.0,63.0,75.0
0.49988592,0.50053775,0.4961251,0.4957049,0.5043736,0.50241697,0.49012205,0.47902465,27.0,24.0,52.0,51.0,63.0,50.0,49.0,53.0,54.0,53.0,46.0,44.0,58.0,43.0,41.0
0.50239724,0.47578466,0.45285228,0.49353245,0.460304,0.5065982,0.47614756,0.46412033,27.0,40.0,39.0,53.0,58.0,46.0,22.0,16.0,18.0,25.0,17.0,20.0,2.0,23.0,22.0
0.5009941,0.49682572,0.4924116,0.4957049,0.5030628,0.49905556,0.4885567,0.46527967,35.0,33.0,52.0,63.0,93.0,74.0,60.0,69.0,77.0,60.0,82.0,68.0,71.0,68.0,71.0
0.49810556,0.49682572,0.48987278,0.5031157,0.5062805,0.5093072,0.4885567,0.48706025,16.0,35.0,39.0,42.0,36.0,56.0,32.0,45.0,37.0,40.0,65.0,43.0,52.0,57.0,34.0
0.50095147,0.44406164,0.44288495,0.4854629,0.4511386,0.50490946,0.44467556,0.5042175,23.0,39.0,56.0,62.0,47.0,51.0,4.0,27.0,29.0,21.0,21.0,3.0,11.0,23.0,21.0
0.51941323,0.4343845,0.49785405,0.47380546,0.4854433,0.51540697,0.49101916,0.5027662,3.0,10.0,14.0,12.0,8.0,15.0,8.0,8.0,1.0,18.0,6.0,7.0,22.0,27.0,5.0
0.5065521,0.46699476,0.44101858,0.4957049,0.4823811,0.5028027,0.45621264,0.4926175,49.0,37.0,58.0,10.0,30.0,12.0,62.0,56.0,54.0,85.0,72.0,64.0,66.0,75.0,72.0
0.5065521,0.46234986,0.44011584,0.4957049,0.4823811,0.5006654,0.45621264,0.4926175,40.0,47.0,56.0,9.0,43.0,35.0,69.0,58.0,49.0,77.0,61.0,74.0,67.0,65.0,66.0
0.5035054,0.47806278,0.49726337,0.4957049,0.5043736,0.5004632,0.49012205,0.48307252,44.0,19.0,40.0,54.0,53.0,37.0,37.0,35.0,41.0,35.0,53.0,48.0,51.0,49.0,58.0
0.50095147,0.49682572,0.48987278,0.4957049,0.5062805,0.5098414,0.4885567,0.46439457,20.0,43.0,31.0,58.0,44.0,43.0,41.0,41.0,37.0,42.0,53.0,48.0,39.0,66.0,42.0
0.5009941,0.49682572,0.4920936,0.48978934,0.50660217,0.5056031,0.4885567,0.4926175,39.0,56.0,30.0,25.0,8.0,4.0,57.0,50.0,60.0,72.0,71.0,65.0,62.0,78.0,69.0
0.4923344,0.50156724,0.47506508,0.5031157,0.50848657,0.5093072,0.49012205,0.4994442,16.0,22.0,58.0,36.0,75.0,54.0,58.0,69.0,57.0,39.0,35.0,31.0,37.0,43.0,31.0
0.50001377,0.50091094,0.46131313,0.49851957,0.48681042,0.50813544,0.47762543,0.47273433,17.0,14.0,11.0,20.0,24.0,10.0,6.0,18.0,21.0,14.0,21.0,15.0,19.0,19.0,10.0
0.5041698,0.4763909,0.5015419,0.47835147,0.46472672,0.5073915,0.48517513,0.4925845,34.0,19.0,27.0,46.0,48.0,55.0,27.0,22.0,22.0,21.0,11.0,23.0,10.0,12.0,28.0
0.5009941,0.49206874,0.4920936,0.4957049,0.5030628,0.49905556,0.4885567,0.46778572,59.0,45.0,72.0,73.0,87.0,72.0,62.0,79.0,86.0,60.0,98.0,79.0,61.0,66.0,69.0
0.5021646,0.495356,0.4857464,0.4833961,0.4843102,0.50152105,0.47377157,0.5116733,27.0,19.0,49.0,63.0,47.0,55.0,30.0,13.0,28.0,14.0,16.0,7.0,3.0,12.0,10.0
0.5194324,0.49089193,0.4825289,0.5043555,0.5057558,0.50544435,0.47507885,0.5123619,21.0,11.0,24.0,1.0,21.0,8.0,16.0,6.0,19.0,17.0,19.0,8.0,19.0,23.0,3.0
0.51137507,0.49350223,0.485773,0.49500805,0.48576447,0.50105,0.47762543,0.4883681,30.0,17.0,59.0,51.0,60.0,54.0,23.0,1.0,25.0,28.0,28.0,23.0,25.0,15.0,15.0
0.5035054,0.50053775,0.49785244,0.4957049,0.50880826,0.49731076,0.48272344,0.46844244,39.0,26.0,38.0,51.0,54.0,39.0,55.0,31.0,50.0,41.0,44.0,38.0,36.0,65.0,39.0
0.49776158,0.43748224,0.45688576,0.4810971,0.4589099,0.5071583,0.47787505,0.506964,14.0,28.0,33.0,22.0,8.0,20.0,4.0,17.0,21.0,12.0,16.0,1.0,2.0,10.0,23.0
0.5009941,0.494366,0.4920936,0.4957049,0.5030628,0.5012207,0.4885567,0.4926175,41.0,55.0,44.0,39.0,55.0,32.0,60.0,50.0,58.0,61.0,62.0,61.0,68.0,67.0,65.0
0.4838447,0.48095345,0.48689744,0.51052725,0.48911446,0.5106479,0.49408868,0.5173909,19.0,19.0,30.0,57.0,58.0,58.0,22.0,11.0,7.0,3.0,5.0,15.0,11.0,1.0,4.0
0.48822552,0.48134542,0.48971155,0.51427734,0.49680588,0.50842524,0.48902005,0.49840266,2.0,25.0,30.0,24.0,14.0,11.0,9.0,6.0,15.0,8.0,29.0,21.0,26.0,6.0,9.0
0.50317544,0.49089003,0.4904512,0.50038844,0.4991864,0.5033961,0.49101916,0.50325084,22.0,23.0,2.0,17.0,18.0,9.0,6.0,0.0,5.0,10.0,18.0,4.0,15.0,20.0,6.0
0.5091314,0.48950082,0.5015419,0.4733809,0.47523767,0.50711775,0.4895913,0.49182895,31.0,22.0,58.0,69.0,59.0,57.0,25.0,20.0,20.0,14.0,12.0,13.0,20.0,6.0,17.0
0.5065521,0.4660162,0.44663498,0.48978934,0.48322928,0.4959251,0.45621264,0.4926175,48.0,37.0,32.0,14.0,16.0,46.0,51.0,54.0,58.0,84.0,74.0,65.0,63.0,61.0,68.0
0.48655048,0.48494706,0.49605748,0.49625403,0.4713148,0.5068148,0.4978526,0.515352,19.0,25.0,28.0,58.0,55.0,57.0,29.0,27.0,9.0,2.0,15.0,13.0,15.0,3.0,25.0
0.50881964,0.46699476,0.44011584,0.4957049,0.4823811,0.49771145,0.45621264,0.4917324,55.0,59.0,49.0,9.0,29.0,38.0,60.0,47.0,45.0,81.0,73.0,70.0,64.0,67.0,61.0
0.5009941,0.49206874,0.4920936,0.4957049,0.5030628,0.49905556,0.4885567,0.46778572,57.0,49.0,82.0,66.0,65.0,74.0,68.0,86.0,68.0,60.0,80.0,88.0,61.0,94.0,75.0
0.51000327,0.49089193,0.4833718,0.5043555,0.49929377,0.5097371,0.49713802,0.50606865,14.0,28.0,17.0,7.0,19.0,2.0,0.0,7.0,8.0,23.0,12.0,4.0,1.0,19.0,4.0
0.5194324,0.5010593,0.4939855,0.49496624,0.49483773,0.5097736,0.47762543,0.46486014,5.0,16.0,43.0,28.0,19.0,15.0,20.0,11.0,21.0,18.0,11.0,16.0,21.0,27.0,1.0
0.5026377,0.48546848,0.5107001,0.49573103,0.49226266,0.51309997,0.49259618,0.4586344,0.0,16.0,39.0,4.0,28.0,8.0,21.0,3.0,4.0,7.0,21.0,29.0,13.0,27.0,26.0
0.51919097,0.45386556,0.47199303,0.47243592,0.48624605,0.51679456,0.47663432,0.51947075,4.0,1.0,45.0,15.0,4.0,22.0,7.0,26.0,20.0,1.0,9.0,3.0,24.0,15.0,7.0
0.49810556,0.50053775,0.48987278,0.5031157,0.512026,0.5093072,0.4885567,0.48706025,16.0,30.0,32.0,43.0,34.0,53.0,45.0,32.0,44.0,50.0,48.0,48.0,57.0,63.0,34.0
0.49826148,0.49089193,0.48751813,0.49350506,0.49516758,0.5002925,0.48315722,0.50424904,30.0,11.0,38.0,13.0,30.0,0.0,11.0,5.0,18.0,15.0,4.0,1.0,23.0,10.0,0.0
0.49927795,0.495356,0.4639114,0.48151237,0.45776743,0.5067304,0.4763569,0.50449234,20.0,18.0,34.0,64.0,47.0,46.0,19.0,16.0,19.0,23.0,14.0,1.0,6.0,12.0,28.0
0.5009941,0.49682572,0.4920936,0.4957049,0.5030628,0.49905556,0.4885567,0.46527967,33.0,57.0,69.0,71.0,69.0,69.0,66.0,81.0,71.0,60.0,100.0,70.0,76.0,64.0,78.0
0.5009941,0.49682572,0.4920936,0.4957049,0.5030628,0.49905556,0.4885567,0.46404064,38.0,51.0,85.0,69.0,74.0,81.0,61.0,66.0,88.0,60.0,87.0,81.0,73.0,61.0,79.0
0.5009941,0.49682572,0.4924116,0.4957049,0.5030628,0.49905556,0.4885567,0.46778572,39.0,35.0,65.0,68.0,72.0,84.0,62.0,65.0,68.0,60.0,85.0,66.0,67.0,97.0,66.0
0.49371955,0.50053775,0.48974445,0.4957049,0.512026,0.5093072,0.48567683,0.4647113,19.0,27.0,52.0,54.0,40.0,50.0,46.0,51.0,38.0,40.0,48.0,34.0,48.0,53.0,58.0
0.5009941,0.494366,0.4920936,0.4957049,0.5030628,0.49905556,0.4885567,0.46778572,42.0,42.0,60.0,63.0,75.0,85.0,61.0,86.0,67.0,60.0,62.0,89.0,77.0,93.0,63.0
0.5009941,0.47806278,0.4924116,0.4957049,0.50880826,0.49905556,0.4885567,0.46932754,50.0,31.0,68.0,64.0,80.0,67.0,68.0,91.0,72.0,60.0,60.0,74.0,65.0,89.0,62.0
0.4804223,0.46369365,0.48082048,0.4963934,0.4766746,0.50809735,0.47812697,0.5123619,3.0,5.0,42.0,5.0,23.0,23.0,26.0,4.0,18.0,16.0,10.0,1.0,6.0,6.0,14.0
0.4923344,0.49682572,0.48987278,0.5031157,0.5062805,0.5094717,0.4885567,0.48794535,16.0,37.0,36.0,35.0,31.0,59.0,46.0,61.0,39.0,52.0,69.0,45.0,50.0,54.0,57.0
0.5065521,0.46699476,0.44011584,0.48978934,0.5182767,0.49644288,0.45621264,0.4926175,44.0,58.0,54.0,7.0,9.0,40.0,57.0,52.0,51.0,77.0,73.0,62.0,62.0,76.0,69.0
0.5091314,0.49274644,0.47770506,0.49487403,0.4796724,0.49860153,0.49295324,0.49185622,33.0,41.0,55.0,72.0,54.0,50.0,16.0,19.0,10.0,24.0,25.0,26.0,1.0,2.0,7.0
0.48505783,0.4879146,0.47124398,0.5285008,0.453008,0.51227146,0.49413005,0.51004124,15.0,12.0,3.0,6.0,25.0,2.0,20.0,19.0,13.0,24.0,16.0,25.0,9.0,2.0,18.0
0.5127925,0.5014184,0.49615705,0.5038363,0.5032895,0.50937283,0.47951612,0.4675846,15.0,29.0,42.0,29.0,28.0,4.0,19.0,2.0,23.0,24.0,7.0,25.0,18.0,28.0,6.0
0.5009941,0.49682572,0.4924116,0.4957049,0.50660217,0.50250286,0.4885567,0.48794535,36.0,38.0,37.0,44.0,36.0,30.0,56.0,56.0,60.0,62.0,72.0,68.0,63.0,63.0,62.0
0.51954746,0.44417673,0.47527015,0.46155885,0.45493466,0.50610673,0.47663432,0.51972115,16.0,36.0,58.0,57.0,56.0,53.0,6.0,22.0,3.0,12.0,23.0,8.0,12.0,25.0,7.0
0.5009941,0.5030495,0.49863458,0.4957049,0.507913,0.50113016,0.49012205,0.47902465,35.0,16.0,43.0,52.0,44.0,38.0,48.0,71.0,59.0,31.0,45.0,47.0,46.0,38.0,58.0
0.5009941,0.49206874,0.4920936,0.4957049,0.5030628,0.49905556,0.4885567,0.46778572,58.0,59.0,71.0,69.0,92.0,74.0,62.0,63.0,75.0,60.0,88.0,65.0,71.0,88.0,79.0
0.5009941,0.49206874,0.4924116,0.4957049,0.5030628,0.49905556,0.4885567,0.46778572,56.0,36.0,47.0,74.0,71.0,73.0,70.0,79.0,83.0,60.0,80.0,75.0,70.0,64.0,89.0
0.5009941,0.49206874,0.4924116,0.4957049,0.5030628,0.49905556,0.4885567,0.46778572,60.0,37.0,57.0,75.0,63.0,78.0,66.0,70.0,67.0,60.0,96.0,88.0,70.0,94.0,81.0
0.5194324,0.5012409,0.4935698,0.5038363,0.5050764,0.50576174,0.47762543,0.46486014,26.0,0.0,30.0,11.0,14.0,10.0,15.0,4.0,19.0,28.0,4.0,20.0,15.0,26.0,4.0
0.49983385,0.50107336,0.4959599,0.4985345,0.49884462,0.5106479,0.4966062,0.4814302,24.0,6.0,9.0,30.0,27.0,7.0,30.0,9.0,7.0,20.0,5.0,23.0,8.0,25.0,12.0
0.4923344,0.5030495,0.47682092,0.5031157,0.512026,0.5093072,0.4898435,0.46727544,16.0,26.0,47.0,55.0,32.0,54.0,47.0,72.0,49.0,34.0,38.0,41.0,58.0,35.0,39.0
0.5009941,0.49206874,0.4920936,0.4957049,0.5030628,0.49905556,0.4885567,0.46778572,57.0,47.0,64.0,66.0,64.0,65.0,64.0,73.0,77.0,60.0,75.0,86.0,67.0,82.0,77.0
0.5009941,0.494366,0.4920936,0.4957049,0.50660217,0.50036556,0.4885567,0.4926175,41.0,45.0,37.0,29.0,37.0,34.0,60.0,56.0,55.0,82.0,70.0,73.0,69.0,77.0,70.0
0.5065521,0.46699476,0.44011584,0.4957049,0.4823811,0.4959251,0.45621264,0.4926175,43.0,46.0,58.0,9.0,59.0,53.0,68.0,53.0,53.0,74.0,75.0,67.0,63.0,67.0,61.0
0.5009941,0.45187014,0.49726337,0.4854629,0.4695103,0.49731076,0.4831572,0.4874276,42.0,22.0,55.0,48.0,38.0,50.0,30.0,65.0,47.0,36.0,75.0,38.0,31.0,56.0,38.0
0.4975257,0.5030495,0.4974963,0.4957049,0.512026,0.5093072,0.49012205,0.46311358,23.0,25.0,41.0,51.0,36.0,36.0,35.0,60.0,58.0,50.0,49.0,32.0,50.0,39.0,44.0
0.50508916,0.48260945,0.48006594,0.49691594,0.48453256,0.5090953,0.47614756,0.47420713,32.0,37.0,16.0,56.0,52.0,51.0,3.0,3.0,26.0,28.0,7.0,23.0,15.0,20.0,20.0
0.5091314,0.48459935,0.5018067,0.5080266,0.46472672,0.5043866,0.49351215,0.49162626,30.0,16.0,39.0,45.0,57.0,52.0,20.0,18.0,12.0,7.0,26.0,29.0,2.0,7.0,24.0
0.4804223,0.49364763,0.49327248,0.51041585,0.49632174,0.50508755,0.49620736,0.477052,6.0,18.0,33.0,27.0,17.0,0.0,20.0,2.0,5.0,17.0,21.0,13.0,20.0,5.0,12.0
0.49796653,0.4791456,0.4763887,0.49263814,0.4738179,0.5145692,0.49620643,0.49919608,24.0,12.0,13.0,7.0,0.0,29.0,17.0,11.0,8.0,18.0,8.0,20.0,8.0,11.0,20.0
0.5035054,0.47806278,0.49726337,0.4957049,0.507913,0.4956252,0.4831572,0.50349206,43.0,18.0,37.0,31.0,47.0,42.0,57.0,39.0,56.0,52.0,63.0,44.0,48.0,54.0,57.0
0.5035054,0.4758764,0.48187858,0.50035274,0.47961903,0.5090953,0.5040711,0.4896359,39.0,23.0,45.0,70.0,56.0,56.0,12.0,8.0,29.0,29.0,6.0,26.0,4.0,24.0,19.0
0.5148739,0.4839501,0.46247986,0.47245437,0.49320418,0.5152194,0.48517513,0.46672136,19.0,20.0,38.0,18.0,20.0,25.0,14.0,19.0,12.0,25.0,3.0,21.0,30.0,30.0,20.0
0.5148739,0.48435903,0.49928698,0.49580458,0.46950784,0.5090953,0.5091707,0.48062384,40.0,25.0,60.0,74.0,47.0,58.0,25.0,1.0,5.0,3.0,4.0,26.0,9.0,18.0,23.0
0.511313,0.44138822,0.49360314,0.4793308,0.45969036,0.50711775,0.48355976,0.5072275,32.0,32.0,34.0,47.0,48.0,51.0,4.0,26.0,28.0,14.0,7.0,3.0,28.0,1.0,17.0
0.49336916,0.4343845,0.46075594,0.46627417,0.45903403,0.51722413,0.4763569,0.49511132,11.0,18.0,38.0,10.0,4.0,27.0,0.0,15.0,21.0,9.0,9.0,3.0,27.0,30.0,27.0
0.5091314,0.49027187,0.48289138,0.49631673,0.4989224,0.5002925,0.47639948,0.49278066,31.0,36.0,21.0,55.0,56.0,56.0,14.0,1.0,21.0,5.0,14.0,12.0,6.0,2.0,9.0
0.5035054,0.47806278,0.4975949,0.4957049,0.51234764,0.49609765,0.48272344,0.4932742,43.0,26.0,49.0,45.0,47.0,48.0,32.0,45.0,56.0,58.0,63.0,59.0,41.0,63.0,37.0
0.5009941,0.49785525,0.49215406,0.4957049,0.5030628,0.50130296,0.4885567,0.46527967,32.0,35.0,34.0,56.0,58.0,34.0,32.0,49.0,40.0,34.0,34.0,59.0,48.0,50.0,31.0
0.5009941,0.47408545,0.4924116,0.48720798,0.49038348,0.49731076,0.4885567,0.4926175,42.0,37.0,41.0,40.0,44.0,48.0,60.0,67.0,48.0,47.0,68.0,35.0,32.0,74.0,31.0
0.49988592,0.50053775,0.4961886,0.4957049,0.50880826,0.5012668,0.48272344,0.49011144,27.0,26.0,34.0,40.0,52.0,58.0,38.0,68.0,32.0,56.0,32.0,44.0,60.0,53.0,55.0
0.5009941,0.50053775,0.4924116,0.4957049,0.51234764,0.50288534,0.48871872,0.4647113,34.0,28.0,30.0,52.0,39.0,30.0,39.0,60.0,51.0,38.0,42.0,31.0,60.0,46.0,57.0
0.5009941,0.494366,0.4920936,0.4957049,0.5030628,0.49905556,0.4885567,0.46778572,41.0,48.0,77.0,72.0,76.0,81.0,68.0,82.0,64.0,60.0,76.0,87.0,65.0,64.0,73.0
0.5009941,0.49682572,0.4920936,0.4957049,0.5030628,0.49905556,0.4885567,0.46527967,32.0,57.0,54.0,74.0,88.0,86.0,64.0,96.0,62.0,60.0,81.0,86.0,74.0,85.0,82.0
0.4962622,0.49758556,0.4912907,0.48806766,0.4853205,0.50868994,0.48876813,0.49763444,8.0,6.0,15.0,12.0,23.0,17.0,8.0,13.0,15.0,20.0,28.0,15.0,22.0,12.0,11.0
0.5009941,0.49206874,0.4924116,0.4957049,0.5030628,0.49905556,0.4885567,0.46778572,52.0,40.0,74.0,70.0,86.0,84.0,70.0,85.0,88.0,60.0,88.0,67.0,70.0,100.0,73.0
0.5009941,0.49682572,0.4920936,0.48978934,0.50660217,0.49614298,0.4885567,0.48794535,34.0,55.0,57.0,43.0,9.0,57.0,67.0,57.0,55.0,63.0,72.0,74.0,69.0,67.0,67.0
0.5009941,0.49682572,0.4924116,0.4957049,0.5030628,0.49905556,0.4885567,0.46527967,34.0,37.0,73.0,70.0,62.0,68.0,60.0,86.0,75.0,60.0,71.0,68.0,62.0,83.0,71.0
0.5009941,0.49807805,0.4924116,0.4957049,0.4925883,0.4981506,0.4885567,0.4941593,40.0,30.0,43.0,46.0,56.0,35.0,50.0,58.0,60.0,46.0,66.0,46.0,35.0,67.0,54.0
0.50095147,0.47645426,0.4961251,0.48720798,0.48068437,0.5093072,0.4831572,0.4994442,22.0,19.0,43.0,38.0,44.0,55.0,33.0,39.0,60.0,33.0,67.0,44.0,32.0,74.0,38.0
0.5022854,0.4840638,0.49863458,0.4957049,0.5043736,0.49750915,0.49012205,0.48131636,43.0,21.0,46.0,55.0,59.0,53.0,32.0,48.0,57.0,37.0,58.0,42.0,39.0,37.0,32.0
0.5148739,0.43318373,0.47835818,0.46910137,0.4601635,0.5043866,0.4734096,0.51098245,35.0,43.0,50.0,57.0,51.0,59.0,22.0,20.0,16.0,12.0,29.0,4.0,10.0,26.0,17.0
0.50095147,0.49682572,0.48987278,0.4957049,0.5027411,0.5098414,0.4885567,0.47623268,21.0,43.0,32.0,48.0,67.0,44.0,44.0,44.0,48.0,59.0,54.0,36.0,50.0,44.0,51.0
0.49731886,0.47931916,0.5009051,0.48324928,0.4718482,0.5072406,0.4969379,0.491599,25.0,1.0,34.0,21.0,7.0,29.0,21.0,30.0,17.0,27.0,30.0,25.0,21.0,10.0,27.0
0.5009941,0.49206874,0.4920936,0.4957049,0.5030628,0.49905556,0.4885567,0.46778572,56.0,49.0,77.0,62.0,71.0,72.0,63.0,84.0,81.0,60.0,72.0,68.0,68.0,70.0,82.0
0.5035054,0.494366,0.4924116,0.4957049,0.5030628,0.49790537,0.4885567,0.47873873,42.0,34.0,48.0,48.0,56.0,50.0,43.0,38.0,55.0,52.0,48.0,51.0,48.0,57.0,45.0
0.5009941,0.49682572,0.4920936,0.4957049,0.5030628,0.49905556,0.4885567,0.46527967,32.0,54.0,87.0,70.0,95.0,78.0,66.0,95.0,66.0,60.0,87.0,71.0,70.0,62.0,78.0
0.5091314,0.4923638,0.4883334,0.49073568,0.4989224,0.49860153,0.49363196,0.4935716,36.0,20.0,20.0,72.0,52.0,51.0,18.0,11.0,10.0,13.0,29.0,28.0,18.0,7.0,0.0
0.4979448,0.5006326,0.48569462,0.4925406,0.47589058,0.505637,0.4845156,0.49712607,22.0,12.0,6.0,12.0,22.0,29.0,14.0,19.0,10.0,20.0,26.0,21.0,19.0,14.0,4.0
0.4923344,0.50053775,0.48974445,0.5031157,0.512026,0.5093072,0.48567683,0.48794535,15.0,27.0,41.0,46.0,36.0,45.0,40.0,56.0,41.0,48.0,49.0,39.0,55.0,74.0,54.0
0.5091314,0.4943429,0.48846975,0.4888731,0.49211204,0.49860153,0.48786387,0.5081728,34.0,34.0,30.0,56.0,52.0,52.0,17.0,5.0,13.0,26.0,24.0,11.0,3.0,0.0,13.0
0.5009941,0.494366,0.4920936,0.4957049,0.5030628,0.49905556,0.4885567,0.46778572,40.0,57.0,71.0,74.0,68.0,72.0,62.0,63.0,65.0,60.0,63.0,63.0,70.0,74.0,82.0
0.5191697,0.4948687,0.48529267,0.47029588,0.49548712,0.49949542,0.5080363,0.5073765,45.0,42.0,39.0,71.0,45.0,53.0,6.0,1.0,24.0,3.0,28.0,4.0,13.0,17.0,6.0
0.4923344,0.50053775,0.47506508,0.5031157,0.50848657,0.5093072,0.4831572,0.49335405,15.0,21.0,42.0,42.0,64.0,55.0,52.0,72.0,50.0,32.0,48.0,32.0,53.0,74.0,55.0
0.5069393,0.48020834,0.49636668,0.48092487,0.48403844,0.5070566,0.48943707,0.45611092,14.0,1.0,30.0,18.0,25.0,1.0,20.0,25.0,2.0,7.0,20.0,14.0,6.0,29.0,24.0
0.5194324,0.49225825,0.48529658,0.4763533,0.4851611,0.5042094,0.47377157,0.5110269,26.0,39.0,30.0,59.0,51.0,51.0,17.0,7.0,27.0,29.0,14.0,4.0,3.0,16.0,3.0
0.4975257,0.49682572,0.48987278,0.4957049,0.5027411,0.5098414,0.4885567,0.49011144,21.0,43.0,42.0,33.0,73.0,43.0,60.0,63.0,51.0,45.0,57.0,34.0,54.0,44.0,54.0
0.5035054,0.5030495,0.49863458,0.4957049,0.5043736,0.49997988,0.49012205,0.48922634,28.0,25.0,45.0,45.0,70.0,36.0,56.0,41.0,56.0,34.0,45.0,45.0,48.0,38.0,47.0
0.5009941,0.49206874,0.4924116,0.4957049,0.5030628,0.49905556,0.4885567,0.46778572,43.0,37.0,68.0,71.0,98.0,86.0,66.0,83.0,79.0,60.0,64.0,79.0,61.0,86.0,72.0
0.4926815,0.49785525,0.48987278,0.49617848,0.5027411,0.5094717,0.4885567,0.4832256,18.0,37.0,47.0,47.0,56.0,48.0,40.0,55.0,54.0,44.0,40.0,31.0,48.0,46.0,33.0
0.4968601,0.50091094,0.48347348,0.50829625,0.4902764,0.50998026,0.48302108,0.48225898,0.0,6.0,5.0,25.0,16.0,6.0,14.0,15.0,30.0,26.0,10.0,21.0,2.0,17.0,9.0
0.5162968,0.49308932,0.49159715,0.4904599,0.4989224,0.4999407,0.5080363,0.48323837,44.0,35.0,20.0,73.0,48.0,52.0,30.0,11.0,5.0,9.0,16.0,23.0,27.0,23.0,9.0
0.5009941,0.49682572,0.4924116,0.4957049,0.5030628,0.49905556,0.4885567,0.46778572,39.0,38.0,70.0,64.0,69.0,62.0,61.0,92.0,84.0,60.0,89.0,85.0,79.0,93.0,64.0
0.5022854,0.49682572,0.4924116,0.4957049,0.50660217,0.50304157,0.4885567,0.4917324,39.0,41.0,34.0,37.0,39.0,10.0,47.0,48.0,46.0,77.0,65.0,62.0,68.0,65.0,75.0
0.48607123,0.488446,0.48899853,0.51427734,0.4677375,0.5148565,0.47787735,0.49763444,2.0,18.0,21.0,6.0,24.0,10.0,24.0,7.0,28.0,19.0,13.0,30.0,29.0,9.0,19.0
0.5026377,0.48553833,0.49525136,0.49573103,0.4964719,0.5166427,0.49713802,0.46252206,6.0,1.0,31.0,9.0,7.0,4.0,23.0,3.0,4.0,4.0,30.0,15.0,23.0,18.0,21.0
0.5148739,0.48315227,0.50480205,0.49472988,0.46010336,0.50672823,0.49465826,0.4586344,16.0,33.0,31.0,75.0,52.0,52.0,10.0,4.0,2.0,18.0,21.0,22.0,27.0,18.0,26.0
0.5091314,0.49027187,0.48289138,0.48287612,0.49211204,0.49946317,0.5080363,0.49333912,44.0,42.0,55.0,57.0,47.0,58.0,17.0,0.0,20.0,7.0,25.0,12.0,19.0,3.0,8.0
0.49988592,0.49682572,0.4908761,0.4957049,0.5030628,0.5012668,0.4885567,0.47711778,27.0,45.0,42.0,48.0,68.0,38.0,50.0,55.0,46.0,51.0,45.0,33.0,57.0,45.0,52.0
0.5009941,0.49206874,0.4924116,0.48978934,0.50660217,0.502355,0.4885567,0.4926175,55.0,38.0,42.0,32.0,3.0,26.0,65.0,60.0,51.0,80.0,72.0,69.0,65.0,74.0,63.0
0.48581392,0.48667252,0.4891584,0.50098276,0.48933268,0.50743616,0.49713802,0.48618618,26.0,21.0,31.0,11.0,12.0,6.0,11.0,12.0,6.0,5.0,9.0,20.0,25.0,3.0,3.0
0.5091314,0.48745924,0.48275504,0.48845717,0.48134694,0.50105,0.5089772,0.4933664,41.0,33.0,49.0,50.0,51.0,59.0,20.0,14.0,26.0,10.0,29.0,16.0,7.0,7.0,15.0
0.5035054,0.49682572,0.4924116,0.4957049,0.5030628,0.50288534,0.4885567,0.46439457,28.0,36.0,55.0,54.0,67.0,30.0,59.0,42.0,45.0,32.0,63.0,39.0,50.0,46.0,58.0
0.5035054,0.48057455,0.503046,0.4957049,0.5043736,0.5049782,0.49012205,0.4888578,43.0,22.0,36.0,40.0,65.0,58.0,30.0,30.0,53.0,58.0,71.0,54.0,46.0,33.0,42.0
0.5035054,0.494366,0.4924116,0.4957049,0.5030628,0.50250286,0.4885567,0.4917324,40.0,41.0,49.0,38.0,57.0,29.0,57.0,46.0,58.0,74.0,77.0,70.0,62.0,80.0,60.0
0.5017187,0.463139,0.5027002,0.4796785,0.45967036,0.5113317,0.4804357,0.50449234,17.0,15.0,33.0,12.0,27.0,26.0,25.0,16.0,10.0,19.0,8.0,9.0,4.0,24.0,24.0
0.49371955,0.49785525,0.48987278,0.4957049,0.5062805,0.5098414,0.4885567,0.4647113,19.0,45.0,49.0,49.0,37.0,59.0,35.0,65.0,43.0,58.0,49.0,31.0,57.0,72.0,30.0
0.5009941,0.47806278,0.4924116,0.4957049,0.50880826,0.49905556,0.4885567,0.46932754,45.0,31.0,82.0,74.0,73.0,63.0,67.0,67.0,64.0,60.0,95.0,64.0,62.0,75.0,67.0
0.49988592,0.49682572,0.48987278,0.4957049,0.5030628,0.5012668,0.4885567,0.49011144,26.0,33.0,53.0,46.0,68.0,51.0,50.0,68.0,39.0,40.0,72.0,60.0,45.0,69.0,41.0
0.5091314,0.49493194,0.4883334,0.4854363,0.4807425,0.49860153,0.5083837,0.49737045,40.0,21.0,27.0,46.0,57.0,58.0,4.0,15.0,14.0,27.0,29.0,21.0,17.0,7.0,3.0
0.49810556,0.4993375,0.48987278,0.5031157,0.5012034,0.5098414,0.4885567,0.46439457,16.0,44.0,37.0,50.0,64.0,31.0,51.0,46.0,53.0,46.0,49.0,41.0,35.0,39.0,36.0
0.5035054,0.49807805,0.49726337,0.4957049,0.5043736,0.4956252,0.4831572,0.49740192,40.0,20.0,55.0,42.0,60.0,50.0,54.0,37.0,56.0,51.0,50.0,51.0,43.0,59.0,52.0
0.5009941,0.494366,0.4920936,0.4957049,0.50660217,0.49952573,0.4885567,0.4926175,40.0,55.0,59.0,43.0,49.0,37.0,70.0,57.0,47.0,83.0,65.0,63.0,66.0,73.0,64.0
0.5035054,0.5030495,0.49726337,0.4957049,0.507913,0.50113016,0.49012205,0.47685856,30.0,21.0,32.0,50.0,31.0,52.0,31.0,46.0,49.0,54.0,58.0,54.0,49.0,41.0,52.0
0.52808714,0.495356,0.48897186,0.4945714,0.49280804,0.50311637,0.49199498,0.50325084,22.0,11.0,33.0,29.0,16.0,24.0,25.0,0.0,1.0,2.0,28.0,4.0,19.0,10.0,3.0
0.5035054,0.49206874,0.4920936,0.4957049,0.50660217,0.50250286,0.4885567,0.4917324,57.0,43.0,45.0,40.0,43.0,22.0,46.0,47.0,48.0,72.0,67.0,72.0,62.0,67.0,69.0
0.5009941,0.49206874,0.4924116,0.4957049,0.5030628,0.49905556,0.4885567,0.46778572,59.0,37.0,54.0,69.0,74.0,68.0,63.0,92.0,80.0,60.0,92.0,88.0,75.0,97.0,69.0
0.48564807,0.48975867,0.4779293,0.51427734,0.48186162,0.51451844,0.49620643,0.4806045,22.0,4.0,29.0,1.0,2.0,11.0,9.0,10.0,3.0,26.0,11.0,27.0,1.0,2.0,16.0
0.5009941,0.50053775,0.4924116,0.4957049,0.51234764,0.4956252,0.48567683,0.48954308,36.0,28.0,48.0,43.0,38.0,51.0,58.0,57.0,40.0,49.0,61.0,33.0,54.0,59.0,54.0
0.48778173,0.4788524,0.49981242,0.48417664,0.46408778,0.5164461,0.5026109,0.49586076,26.0,5.0,33.0,0.0,3.0,4.0,22.0,24.0,19.0,19.0,15.0,17.0,27.0,9.0,25.0
0.48792195,0.4817325,0.5009051,0.4904245,0.4734584,0.509185,0.4978526,0.5008907,22.0,1.0,17.0,18.0,12.0,16.0,19.0,28.0,0.0,17.0,23.0,12.0,7.0,9.0,25.0
0.5191697,0.44276315,0.49392822,0.48412028,0.46069834,0.49860153,0.5025659,0.5128447,39.0,19.0,45.0,75.0,50.0,49.0,22.0,16.0,17.0,3.0,22.0,10.0,2.0,26.0,9.0
0.5194324,0.4931117,0.48615476,0.49549714,0.48062977,0.5028572,0.47762543,0.4622591,23.0,19.0,54.0,59.0,52.0,48.0,6.0,17.0,18.0,15.0,21.0,12.0,4.0,17.0,8.0
0.5009941,0.49206874,0.4920936,0.4957049,0.5030628,0.49905556,0.4885567,0.46778572,46.0,56.0,49.0,66.0,72.0,71.0,68.0,95.0,84.0,60.0,78.0,86.0,60.0,65.0,81.0
0.5065521,0.46699476,0.44101858,0.48978934,0.48322928,0.50590295,0.45621264,0.4926175,50.0,38.0,57.0,0.0,14.0,2.0,61.0,52.0,46.0,85.0,63.0,62.0,64.0,64.0,74.0
0.5035054,0.494366,0.4924116,0.4957049,0.5030628,0.4956252,0.4885567,0.49114916,41.0,41.0,45.0,46.0,55.0,46.0,47.0,47.0,37.0,41.0,35.0,55.0,57.0,47.0,35.0
0.5096698,0.47382048,0.47790223,0.46910137,0.4551511,0.5130364,0.49012205,0.46895117,15.0,23.0,22.0,13.0,15.0,23.0,8.0,22.0,16.0,19.0,29.0,19.0,14.0,23.0,24.0
0.5128116,0.48172012,0.5028639,0.49641562,0.47384205,0.50957036,0.49620643,0.46188185,16.0,24.0,12.0,25.0,16.0,24.0,1.0,5.0,5.0,29.0,15.0,25.0,21.0,24.0,21.0
0.5096698,0.463139,0.49080753,0.46868107,0.45808622,0.5101646,0.47785038,0.49925885,26.0,22.0,21.0,13.0,23.0,26.0,4.0,16.0,11.0,25.0,3.0,1.0,11.0,17.0,20.0
0.5005456,0.479856,0.44288495,0.4854629,0.4892314,0.50923616,0.449937,0.47345343,24.0,31.0,17.0,48.0,46.0,55.0,6.0,27.0,28.0,17.0,10.0,14.0,26.0,29.0,20.0
0.5009941,0.49206874,0.4920936,0.4957049,0.5030628,0.49905556,0.4885567,0.46778572,44.0,59.0,47.0,62.0,90.0,77.0,64.0,98.0,88.0,60.0,91.0,80.0,65.0,93.0,66.0
0.5009941,0.49206874,0.4920936,0.4957049,0.5030628,0.49905556,0.4885567,0.46778572,44.0,47.0,74.0,63.0,97.0,63.0,62.0,72.0,86.0,60.0,66.0,79.0,76.0,93.0,88.0
0.4975257,0.4993375,0.48987278,0.4957049,0.5027411,0.5098414,0.4885567,0.46527967,21.0,42.0,53.0,54.0,55.0,40.0,55.0,60.0,44.0,39.0,43.0,55.0,46.0,38.0,50.0
0.47784483,0.4894158,0.48806408,0.5190404,0.49217293,0.5086478,0.49373698,0.50919044,17.0,5.0,23.0,23.0,23.0,7.0,23.0,13.0,7.0,26.0,20.0,7.0,2.0,6.0,8.0
0.51919097,0.4401527,0.4916018,0.4925221,0.4964462,0.5149158,0.47377157,0.5110269,16.0,22.0,29.0,62.0,53.0,45.0,23.0,2.0,24.0,11.0,3.0,5.0,30.0,29.0,2.0
0.5065521,0.46699476,0.43720916,0.48978934,0.5182767,0.5038682,0.45621264,0.4926175,54.0,59.0,37.0,5.0,5.0,28.0,56.0,57.0,56.0,89.0,61.0,65.0,62.0,79.0,61.0
0.5009941,0.49206874,0.4920936,0.4957049,0.5030628,0.49905556,0.4885567,0.46778572,57.0,47.0,79.0,72.0,65.0,77.0,68.0,61.0,72.0,60.0,72.0,81.0,67.0,63.0,71.0
0.49695936,0.49793732,0.4536521,0.48551735,0.4766742,0.5088108,0.49003938,0.51004124,3.0,22.0,19.0,4.0,9.0,2.0,17.0,19.0,12.0,14.0,30.0,27.0,9.0,14.0,0.0
0.5009941,0.49206874,0.4924116,0.4957049,0.5030628,0.49905556,0.4885567,0.46778572,58.0,37.0,50.0,61.0,62.0,63.0,61.0,68.0,67.0,60.0,85.0,75.0,68.0,96.0,80.0
0.49567983,0.49740967,0.48604724,0.51021105,0.49750447,0.51229554,0.47762543,0.48225898,25.0,29.0,8.0,1.0,7.0,24.0,20.0,11.0,23.0,9.0,5.0,16.0,7.0,28.0,12.0
0.5009941,0.49206874,0.4924116,0.4957049,0.50660217,0.4956252,0.4885567,0.4926175,46.0,39.0,41.0,29.0,24.0,59.0,50.0,59.0,46.0,70.0,68.0,74.0,65.0,61.0,73.0
0.5192847,0.49484578,0.4952566,0.48339793,0.49552748,0.5002925,0.49047843,0.45796522,30.0,15.0,53.0,72.0,54.0,51.0,14.0,13.0,0.0,12.0,12.0,27.0,17.0,26.0,5.0
0.50020766,0.4940719,0.48925778,0.49362287,0.4905879,0.5131578,0.49620643,0.49560902,28.0,25.0,1.0,24.0,7.0,12.0,19.0,10.0,2.0,0.0,11.0,15.0,9.0,13.0,19.0
0.5009941,0.49206874,0.4924116,0.4957049,0.5030628,0.49905556,0.4885567,0.46778572,59.0,35.0,63.0,65.0,93.0,71.0,65.0,81.0,86.0,60.0,88.0,63.0,75.0,65.0,78.0
0.5091314,0.495356,0.4824857,0.48393494,0.4667232,0.49860153,0.47812697,0.5128447,33.0,21.0,45.0,63.0,53.0,49.0,16.0,15.0,21.0,24.0,26.0,1.0,29.0,0.0,3.0
0.5009941,0.49785525,0.4920936,0.4957049,0.5030628,0.4956252,0.4885567,0.4926175,39.0,44.0,58.0,43.0,67.0,43.0,54.0,66.0,60.0,52.0,60.0,34.0,55.0,72.0,31.0
0.5009941,0.49682572,0.4924116,0.4957049,0.50391555,0.49905556,0.4885567,0.46527967,31.0,32.0,65.0,74.0,67.0,75.0,63.0,86.0,60.0,60.0,84.0,70.0,75.0,98.0,78.0
0.50748175,0.49752292,0.48581937,0.48287612,0.4907824,0.50829464,0.49465826,0.47576782,33.0,37.0,31.0,61.0,53.0,48.0,10.0,8.0,4.0,16.0,2.0,23.0,15.0,5.0,6.0
0.5297079,0.49872562,0.49997595,0.49326596,0.4863689,0.50594133,0.49259618,0.4679322,28.0,26.0,41.0,16.0,26.0,22.0,25.0,11.0,0.0,2.0,26.0,14.0,25.0,14.0,17.0
0.5065521,0.46699476,0.44011584,0.48978934,0.4823811,0.5028027,0.45621264,0.4926175,55.0,48.0,47.0,2.0,22.0,31.0,67.0,57.0,54.0,87.0,74.0,64.0,61.0,64.0,68.0
0.5009941,0.5030495,0.49887294,0.4957049,0.48815358,0.49731076,0.49012205,0.48039073,36.0,19.0,57.0,41.0,73.0,50.0,38.0,71.0,44.0,45.0,68.0,39.0,35.0,36.0,36.0
0.5009941,0.5030495,0.503046,0.4957049,0.507913,0.49997988,0.49012205,0.48039073,33.0,23.0,53.0,45.0,43.0,53.0,36.0,67.0,55.0,38.0,51.0,46.0,50.0,35.0,37.0
0.5035054,0.49807805,0.49726337,0.4957049,0.507913,0.49731076,0.4831572,0.50349206,42.0,19.0,47.0,31.0,41.0,53.0,44.0,46.0,38.0,35.0,58.0,39.0,38.0,56.0,40.0
0.5009941,0.49206874,0.4924116,0.4957049,0.5030628,0.49905556,0.4885567,0.46932754,48.0,33.0,83.0,62.0,71.0,70.0,62.0,79.0,63.0,60.0,96.0,84.0,67.0,84.0,85.0
0.5009941,0.4993375,0.4924116,0.4957049,0.5030628,0.50113016,0.4885567,0.46527967,33.0,41.0,52.0,56.0,65.0,42.0,55.0,68.0,40.0,40.0,49.0,56.0,57.0,40.0,46.0
0.48792195,0.48359868,0.4681466,0.5164112,0.5055711,0.51167756,0.47812697,0.5039806,15.0,30.0,2.0,18.0,19.0,25.0,18.0,4.0,25.0,0.0,25.0,8.0,29.0,2.0,23.0
0.50766015,0.46355104,0.46247986,0.47852856,0.45493466,0.5105429,0.4845156,0.51972115,15.0,8.0,11.0,30.0,19.0,27.0,11.0,20.0,7.0,17.0,2.0,5.0,24.0,19.0,5.0
0.51296264,0.49537086,0.49350724,0.47427395,0.47520033,0.49907905,0.48828492,0.46165705,41.0,17.0,44.0,59.0,49.0,54.0,16.0,27.0,4.0,21.0,17.0,18.0,27.0,2.0,4.0
0.49336916,0.47589812,0.49370486,0.49716184,0.46133572,0.514286,0.47762543,0.46672136,19.0,12.0,41.0,9.0,22.0,14.0,16.0,5.0,21.0,29.0,24.0,14.0,27.0,26.0,28.0
0.51919097,0.45226613,0.47527015,0.46910137,0.45493466,0.50599706,0.47529754,0.51972115,20.0,42.0,57.0,53.0,45.0,52.0,28.0,28.0,15.0,29.0,19.0,8.0,22.0,15.0,3.0
0.51725346,0.44406164,0.4734976,0.4901334,0.45493466,0.5082371,0.490431,0.51972115,16.0,22.0,16.0,62.0,48.0,46.0,10.0,18.0,6.0,2.0,17.0,10.0,3.0,29.0,2.0
0.5009941,0.49206874,0.4920936,0.4957049,0.5030628,0.49905556,0.4885567,0.46778572,56.0,48.0,73.0,67.0,90.0,68.0,68.0,66.0,70.0,60.0,99.0,71.0,72.0,79.0,69.0
0.5009941,0.49807805,0.4924116,0.4957049,0.50880826,0.49731076,0.4885567,0.4941593,40.0,29.0,46.0,37.0,61.0,59.0,44.0,75.0,37.0,40.0,65.0,56.0,37.0,71.0,51.0
0.5009941,0.49206874,0.4924116,0.4957049,0.50391555,0.49905556,0.4885567,0.46932754,47.0,32.0,75.0,67.0,93.0,81.0,68.0,80.0,62.0,60.0,65.0,78.0,73.0,97.0,79.0
0.4772546,0.4782037,0.48096892,0.5026549,0.49931467,0.5107496,0.48666218,0.5047337,10.0,25.0,5.0,22.0,23.0,5.0,3.0,8.0,28.0,13.0,6.0,5.0,12.0,1.0,3.0
0.5065521,0.46234986,0.43720916,0.4957049,0.4823811,0.4959251,0.45621264,0.49011144,34.0,52.0,34.0,8.0,56.0,42.0,47.0,57.0,48.0,90.0,74.0,67.0,60.0,74.0,74.0
0.5009941,0.49785525,0.4924116,0.4957049,0.50745493,0.50113016,0.4885567,0.4687443,41.0,32.0,43.0,52.0,41.0,52.0,35.0,65.0,33.0,46.0,38.0,47.0,57.0,42.0,31.0
0.5123323,0.4951084,0.49493495,0.47676662,0.49241334,0.49946317,0.51512325,0.49270463,43.0,43.0,19.0,49.0,53.0,60.0,20.0,18.0,12.0,18.0,23.0,22.0,17.0,16.0,7.0
0.5009941,0.49682572,0.4920936,0.4957049,0.5030628,0.49905556,0.4885567,0.46778572,39.0,53.0,54.0,70.0,79.0,66.0,68.0,61.0,78.0,60.0,100.0,82.0,64.0,71.0,87.0
0.5009941,0.49206874,0.4920936,0.4957049,0.5030628,0.49905556,0.4885567,0.46778572,58.0,53.0,77.0,65.0,85.0,80.0,70.0,80.0,88.0,60.0,97.0,75.0,74.0,81.0,83.0
0.5194324,0.5010593,0.4939855,0.5010589,0.4899979,0.51111937,0.47762543,0.4675846,15.0,16.0,25.0,24.0,6.0,29.0,22.0,15.0,26.0,24.0,2.0,15.0,17.0,29.0,8.0
0.5091314,0.48995465,0.48367512,0.48287612,0.49150762,0.49997294,0.5080363,0.49333912,45.0,20.0,53.0,75.0,55.0,55.0,16.0,6.0,22.0,3.0,17.0,14.0,26.0,2.0,2.0
0.5065521,0.46699476,0.43720916,0.4957049,0.4823811,0.5028027,0.45621264,0.4926175,51.0,59.0,40.0,9.0,51.0,21.0,64.0,59.0,45.0,61.0,78.0,72.0,63.0,69.0,68.0
0.5035054,0.43318373,0.45150635,0.48195425,0.46050015,0.5043866,0.45049816,0.51027703,43.0,31.0,57.0,49.0,59.0,49.0,21.0,19.0,27.0,5.0,24.0,2.0,11.0,24.0,20.0
0.5035054,0.50156724,0.49785244,0.4957049,0.4951422,0.49731076,0.4898435,0.48706025,28.0,26.0,59.0,41.0,32.0,57.0,39.0,41.0,37.0,34.0,56.0,42.0,35.0,42.0,30.0
0.50748175,0.48002452,0.49928698,0.51058674,0.46729633,0.50711775,0.51639223,0.49676043,39.0,30.0,40.0,70.0,50.0,47.0,5.0,12.0,11.0,26.0,5.0,20.0,2.0,9.0,23.0
0.5065521,0.44927672,0.4381119,0.4957049,0.4823811,0.5028027,0.45621264,0.4941593,51.0,31.0,41.0,11.0,43.0,12.0,54.0,53.0,49.0,63.0,61.0,65.0,66.0,71.0,65.0
0.49988592,0.5030495,0.49554822,0.4957049,0.50880826,0.50241697,0.4898435,0.46527967,26.0,26.0,51.0,51.0,66.0,60.0,45.0,60.0,39.0,60.0,48.0,52.0,47.0,40.0,46.0
0.5009941,0.49206874,0.4920936,0.4957049,0.5030628,0.49905556,0.4885567,0.46778572,48.0,59.0,75.0,62.0,62.0,86.0,63.0,78.0,82.0,60.0,99.0,74.0,68.0,94.0,79.0
0.5009941,0.49682572,0.4924116,0.4957049,0.5030628,0.49905556,0.4885567,0.46527967,34.0,41.0,69.0,66.0,61.0,73.0,62.0,72.0,88.0,60.0,98.0,76.0,67.0,71.0,88.0
0.5091314,0.4886173,0.49997595,0.48287612,0.48348498,0.5043866,0.49363196,0.49182895,36.0,22.0,48.0,48.0,55.0,58.0,22.0,14.0,11.0,18.0,27.0,25.0,28.0,1.0,18.0
0.51305187,0.47721338,0.45662025,0.46155885,0.46245733,0.5095243,0.47565082,0.46188185,16.0,33.0,17.0,52.0,51.0,56.0,10.0,26.0,4.0,11.0,19.0,18.0,9.0,23.0,23.0
0.52978367,0.495356,0.49997595,0.47438198,0.47941795,0.50436634,0.48482656,0.4927418,28.0,32.0,34.0,69.0,59.0,54.0,4.0,4.0,5.0,2.0,17.0,4.0,20.0,12.0,17.0
0.49560753,0.495356,0.48431045,0.4832407,0.46220496,0.5107496,0.47377157,0.5137036,18.0,24.0,26.0,58.0,54.0,55.0,1.0,14.0,18.0,4.0,7.0,2.0,11.0,12.0,2.0
0.52978367,0.49225825,0.50572866,0.4707118,0.47269833,0.5090953,0.48482656,0.47638234,33.0,31.0,58.0,58.0,49.0,59.0,8.0,12.0,2.0,28.0,7.0,3.0,17.0,14.0,30.0
0.51919097,0.4980522,0.48596445,0.49326596,0.5012672,0.51377183,0.47762543,0.48838037,10.0,2.0,25.0,19.0,1.0,16.0,27.0,5.0,21.0,10.0,18.0,26.0,25.0,15.0,6.0
0.5009941,0.49518603,0.4920936,0.48978934,0.50660217,0.50410706,0.4885567,0.48794535,35.0,54.0,45.0,24.0,13.0,10.0,65.0,57.0,46.0,61.0,65.0,66.0,64.0,73.0,68.0
0.49988592,0.50156724,0.4961251,0.4957049,0.5043736,0.50241697,0.4831572,0.47902465,26.0,18.0,43.0,50.0,71.0,50.0,43.0,65.0,56.0,56.0,74.0,35.0,42.0,72.0,32.0
0.5009941,0.49206874,0.4924116,0.4957049,0.5030628,0.49905556,0.4885567,0.46778572,43.0,34.0,49.0,74.0,74.0,75.0,68.0,66.0,76.0,60.0,86.0,67.0,65.0,81.0,62.0
0.48752338,0.49089193,0.48260894,0.5026549,0.49750397,0.5100825,0.49713802,0.49363518,19.0,25.0,11.0,1.0,20.0,3.0,2.0,7.0,6.0,4.0,10.0,8.0,18.0,10.0,15.0
0.4975257,0.5030495,0.4974963,0.4957049,0.50848657,0.5093072,0.49012205,0.4994442,22.0,22.0,52.0,38.0,56.0,46.0,52.0,51.0,48.0,49.0,57.0,46.0,58.0,40.0,41.0
0.5009941,0.49206874,0.4924116,0.4957049,0.5030628,0.49905556,0.4885567,0.46778572,47.0,35.0,47.0,68.0,81.0,77.0,66.0,73.0,76.0,60.0,62.0,73.0,64.0,88.0,77.0
0.50881964,0.46234986,0.44663498,0.4957049,0.4823811,0.4959251,0.45621264,0.4917324,42.0,40.0,40.0,13.0,37.0,55.0,51.0,46.0,53.0,64.0,63.0,70.0,67.0,66.0,70.0
0.5003982,0.4796477,0.49959418,0.4899121,0.46479252,0.5061871,0.47762543,0.4625226,27.0,16.0,29.0,8.0,3.0,8.0,27.0,7.0,22.0,16.0,15.0,26.0,10.0,18.0,24.0
0.50095147,0.4993375,0.48987278,0.4957049,0.5027411,0.5098414,0.4885567,0.46439457,23.0,41.0,52.0,57.0,52.0,40.0,34.0,39.0,58.0,31.0,52.0,53.0,38.0,38.0,49.0
0.4804223,0.495356,0.48170534,0.5040338,0.49508658,0.50868607,0.47812697,0.5110269,20.0,13.0,42.0,25.0,9.0,21.0,5.0,3.0,21.0,3.0,2.0,4.0,15.0,3.0,12.0
0.50365853,0.47227716,0.50181663,0.5034951,0.4627837,0.5120574,0.50195944,0.5025903,29.0,25.0,5.0,2.0,3.0,20.0,21.0,28.0,7.0,19.0,18.0,3.0,17.0,4.0,25.0
0.48778173,0.46758524,0.5039967,0.4935049,0.46513516,0.5204218,0.4968789,0.49481717,24.0,14.0,30.0,13.0,5.0,15.0,29.0,23.0,9.0,11.0,13.0,1.0,19.0,8.0,26.0
0.49976987,0.47819734,0.49372312,0.48907197,0.4747199,0.5064613,0.48346898,0.49384853,23.0,28.0,21.0,29.0,24.0,2.0,19.0,7.0,23.0,9.0,7.0,23.0,7.0,13.0,26.0
0.49810556,0.47270155,0.47790223,0.48695815,0.46809292,0.50666106,0.48517513,0.46944582,5.0,8.0,36.0,25.0,16.0,25.0,12.0,24.0,29.0,17.0,10.0,28.0,15.0,25.0,30.0
0.5065521,0.46234986,0.44011584,0.4957049,0.4823811,0.4959251,0.45621264,0.49011144,32.0,45.0,51.0,6.0,49.0,41.0,48.0,49.0,49.0,86.0,71.0,73.0,67.0,75.0,68.0
0.49995226,0.4941886,0.48571232,0.510519,0.4904441,0.5028572,0.47762543,0.49474514,23.0,28.0,59.0,63.0,49.0,59.0,5.0,12.0,23.0,25.0,29.0,21.0,10.0,13.0,7.0
0.5009941,0.49206874,0.4920936,0.4957049,0.5030628,0.49905556,0.4885567,0.46778572,50.0,46.0,60.0,63.0,68.0,69.0,66.0,84.0,75.0,60.0,75.0,70.0,76.0,88.0,76.0
0.5035054,0.50053775,0.49726337,0.4957049,0.507913,0.4956252,0.4831572,0.49118796,35.0,21.0,50.0,42.0,36.0,58.0,37.0,40.0,55.0,50.0,48.0,46.0,51.0,64.0,57.0
0.5191697,0.43318373,0.47817475,0.4854629,0.4601635,0.5002925,0.47378948,0.5128447,34.0,28.0,43.0,55.0,49.0,45.0,14.0,23.0,26.0,4.0,4.0,2.0,6.0,21.0,6.0
0.5009941,0.49206874,0.4920936,0.4957049,0.5030628,0.49905556,0.4885567,0.46778572,52.0,42.0,80.0,75.0,98.0,66.0,60.0,60.0,71.0,60.0,84.0,64.0,64.0,95.0,79.0
0.50095147,0.50053775,0.4961251,0.4957049,0.50848657,0.5093072,0.48216283,0.4994442,22.0,22.0,39.0,36.0,62.0,38.0,58.0,38.0,33.0,52.0,69.0,39.0,46.0,51.0,34.0
0.5091314,0.49325973,0.4820834,0.48287612,0.49211204,0.5011541,0.50822985,0.49333912,44.0,31.0,41.0,51.0,49.0,56.0,25.0,8.0,26.0,13.0,13.0,16.0,14.0,6.0,2.0
0.5009941,0.4665532,0.4920936,0.4957049,0.4842278,0.4959251,0.4885567,0.4926175,53.0,56.0,40.0,20.0,58.0,53.0,47.0,52.0,49.0,88.0,80.0,71.0,70.0,73.0,61.0
0.5009941,0.49682572,0.4920936,0.4957049,0.5030628,0.49997988,0.4885567,0.49011144,28.0,45.0,33.0,39.0,52.0,53.0,57.0,59.0,52.0,31.0,73.0,36.0,45.0,42.0,38.0
0.4772546,0.495356,0.4823741,0.5015208,0.45567262,0.5105197,0.47812697,0.51972115,19.0,37.0,54.0,70.0,45.0,49.0,24.0,17.0,19.0,2.0,16.0,10.0,29.0,7.0,3.0
0.4772546,0.47992674,0.48007172,0.5285731,0.4538328,0.5163461,0.48807713,0.52064854,16.0,2.0,28.0,14.0,10.0,1.0,19.0,28.0,20.0,14.0,2.0,10.0,18.0,2.0,9.0
0.50095147,0.50053775,0.4961251,0.4957049,0.512026,0.5093072,0.483867,0.4994442,21.0,16.0,55.0,34.0,49.0,51.0,42.0,34.0,52.0,33.0,53.0,44.0,57.0,50.0,40.0
0.5009941,0.49206874,0.4920936,0.4957049,0.5030628,0.49905556,0.4885567,0.46778572,51.0,47.0,68.0,66.0,63.0,66.0,63.0,97.0,81.0,60.0,87.0,73.0,63.0,63.0,67.0
0.5133501,0.47576874,0.50189966,0.4852459,0.46144235,0.51164985,0.48517513,0.46188185,22.0,2.0,14.0,12.0,23.0,26.0,18.0,19.0,5.0,2.0,4.0,18.0,11.0,21.0,21.0
0.49995226,0.4935753,0.4827308,0.510519,0.4896748,0.507845,0.47762543,0.49307078,25.0,33.0,32.0,57.0,53.0,45.0,7.0,1.0,22.0,23.0,9.0,13.0,1.0,12.0,13.0
0.5009941,0.494366,0.4920936,0.4957049,0.5030628,0.49905556,0.4885567,0.46778572,41.0,44.0,51.0,74.0,97.0,64.0,69.0,84.0,79.0,60.0,98.0,87.0,75.0,70.0,60.0
0.4923344,0.50053775,0.48987278,0.5031157,0.512026,0.5093072,0.4885567,0.48794535,15.0,30.0,48.0,42.0,31.0,49.0,60.0,73.0,59.0,57.0,64.0,44.0,42.0,57.0,36.0
0.5148739,0.4401527,0.5012482,0.49836585,0.4609008,0.5045274,0.48025134,0.50449234,17.0,35.0,31.0,50.0,51.0,56.0,2.0,1.0,12.0,5.0,17.0,2.0,0.0,23.0,26.0
0.48505783,0.48833048,0.49393058,0.51041585,0.48655552,0.5070566,0.49065882,0.50815743,1.0,9.0,34.0,16.0,22.0,3.0,7.0,10.0,14.0,17.0,17.0,17.0,12.0,3.0,17.0
0.5009941,0.5005897,0.49726337,0.4957049,0.5043736,0.50113016,0.49012205,0.48307252,42.0,21.0,43.0,60.0,64.0,56.0,40.0,59.0,58.0,42.0,61.0,59.0,52.0,41.0,57.0
0.5009941,0.49206874,0.4924116,0.4957049,0.5030628,0.49905556,0.4885567,0.46778572,53.0,39.0,67.0,71.0,91.0,62.0,64.0,97.0,64.0,60.0,79.0,87.0,69.0,89.0,75.0
0.503021,0.49238604,0.44826266,0.48092487,0.48825723,0.5122499,0.45621264,0.45751205,24.0,29.0,22.0,3.0,26.0,1.0,9.0,25.0,5.0,20.0,22.0,19.0,9.0,24.0,19.0
0.5009941,0.49206874,0.4924116,0.48978934,0.50660217,0.49952573,0.4885567,0.4926175,43.0,34.0,37.0,32.0,16.0,36.0,47.0,54.0,47.0,79.0,78.0,66.0,60.0,79.0,64.0
0.5009941,0.49682572,0.4867645,0.48978934,0.50660217,0.5045375,0.4885567,0.4888724,38.0,36.0,32.0,42.0,20.0,3.0,69.0,54.0,59.0,75.0,72.0,67.0,66.0,71.0,60.0
0.5090022,0.4927667,0.49869922,0.49940822,0.5182262,0.515131,0.48138607,0.46895117,8.0,12.0,12.0,10.0,10.0,7.0,0.0,6.0,16.0,20.0,12.0,19.0,21.0,26.0,19.0
0.5009941,0.49206874,0.4924116,0.4957049,0.5030628,0.49905556,0.4885567,0.46778572,51.0,39.0,84.0,69.0,89.0,63.0,61.0,89.0,77.0,60.0,80.0,72.0,67.0,62.0,85.0
0.5009941,0.49682572,0.4924116,0.4957049,0.50391555,0.49905556,0.4885567,0.46527967,31.0,32.0,56.0,66.0,62.0,77.0,64.0,97.0,76.0,60.0,77.0,87.0,74.0,70.0,64.0
0.4923344,0.50156724,0.47506508,0.5031157,0.50848657,0.5093072,0.48216283,0.47902465,17.0,18.0,55.0,55.0,74.0,34.0,37.0,51.0,30.0,46.0,46.0,31.0,54.0,72.0,31.0
0.5042622,0.462162,0.45189342,0.48724854,0.4525793,0.5140927,0.47507885,0.49341047,12.0,7.0,11.0,2.0,21.0,12.0,4.0,16.0,19.0,14.0,3.0,7.0,24.0,15.0,20.0
0.5009941,0.49682572,0.4920936,0.4957049,0.5030628,0.49905556,0.4885567,0.46404064,38.0,53.0,73.0,68.0,66.0,67.0,65.0,64.0,81.0,60.0,92.0,62.0,61.0,90.0,84.0
0.48655048,0.48142195,0.49100038,0.5305785,0.47089922,0.50959647,0.4978526,0.50380397,18.0,20.0,12.0,29.0,26.0,23.0,16.0,25.0,5.0,8.0,5.0,16.0,22.0,3.0,28.0
0.5035054,0.48155203,0.49726337,0.4957049,0.507913,0.4990057,0.49012205,0.50349206,45.0,22.0,56.0,37.0,31.0,31.0,53.0,38.0,35.0,58.0,57.0,60.0,36.0,46.0,33.0
0.51954746,0.4952931,0.49016142,0.494546,0.48911446,0.5105387,0.4943922,0.45907274,21.0,35.0,34.0,52.0,50.0,59.0,26.0,12.0,6.0,11.0,4.0,14.0,19.0,20.0,11.0
0.5009941,0.49206874,0.4924116,0.4957049,0.5030628,0.49905556,0.4885567,0.46778572,60.0,35.0,58.0,69.0,92.0,78.0,70.0,77.0,85.0,60.0,67.0,85.0,63.0,64.0,82.0
0.5009941,0.494366,0.4920936,0.4957049,0.5030628,0.49905556,0.4885567,0.46778572,40.0,54.0,52.0,63.0,97.0,69.0,64.0,77.0,73.0,60.0,79.0,81.0,78.0,87.0,67.0
0.4772546,0.49089193,0.48071665,0.51427734,0.49600267,0.5110347,0.4833287,0.5073265,18.0,13.0,36.0,10.0,16.0,7.0,28.0,10.0,13.0,4.0,11.0,0.0,22.0,9.0,15.0
0.49810556,0.50053775,0.48974445,0.5031157,0.512026,0.5093072,0.48871872,0.48177215,16.0,27.0,59.0,47.0,38.0,41.0,37.0,45.0,49.0,34.0,72.0,42.0,43.0,49.0,57.0
0.5009941,0.50053775,0.49785244,0.4957049,0.51234764,0.4974447,0.48272344,0.4647113,33.0,26.0,49.0,50.0,41.0,56.0,42.0,59.0,31.0,44.0,58.0,60.0,39.0,61.0,56.0
0.50041276,0.4763909,0.5015419,0.47835147,0.4795942,0.5066167,0.48517513,0.49359888,33.0,18.0,19.0,51.0,53.0,47.0,27.0,23.0,21.0,20.0,15.0,23.0,3.0,11.0,24.0
0.49744076,0.46532673,0.501151,0.47749424,0.45909366,0.51387864,0.46408796,0.50449234,26.0,17.0,39.0,3.0,11.0,2.0,5.0,23.0,24.0,5.0,21.0,4.0,1.0,20.0,24.0
0.48505783,0.4811742,0.48674092,0.50600964,0.4692467,0.50569594,0.49408868,0.47823122,19.0,27.0,22.0,69.0,55.0,56.0,18.0,16.0,2.0,0.0,21.0,29.0,21.0,1.0,15.0
0.48778173,0.48545957,0.49199253,0.503751,0.46702167,0.5129764,0.49461168,0.49560645,23.0,26.0,1.0,6.0,28.0,5.0,20.0,5.0,15.0,8.0,18.0,13.0,30.0,4.0,29.0
0.4963452,0.45226613,0.49981242,0.48355922,0.45690173,0.5143699,0.50195944,0.49311632,23.0,25.0,18.0,5.0,17.0,28.0,25.0,25.0,21.0,14.0,24.0,7.0,18.0,10.0,25.0
0.5065521,0.46234986,0.43720916,0.48978934,0.47278762,0.5028027,0.45621264,0.48794535,31.0,45.0,37.0,11.0,18.0,25.0,63.0,56.0,46.0,64.0,71.0,61.0,66.0,71.0,75.0
0.5009941,0.494366,0.4924116,0.4957049,0.5030628,0.49905556,0.4885567,0.46778572,40.0,35.0,47.0,62.0,72.0,78.0,66.0,72.0,72.0,60.0,69.0,77.0,69.0,74.0,67.0
0.5035054,0.47351283,0.4924116,0.4854629,0.4757041,0.49731076,0.4885567,0.49704605,40.0,30.0,47.0,34.0,35.0,48.0,39.0,37.0,49.0,35.0,35.0,57.0,31.0,46.0,58.0
0.49074784,0.49225825,0.49843535,0.47111386,0.4896845,0.50454223,0.4889014,0.47638234,34.0,21.0,15.0,57.0,49.0,46.0,10.0,14.0,2.0,15.0,20.0,7.0,21.0,13.0,21.0
0.49810556,0.5030495,0.47682092,0.5031157,0.512026,0.5093072,0.4898435,0.46727544,16.0,26.0,35.0,58.0,32.0,37.0,46.0,41.0,55.0,34.0,42.0,52.0,49.0,36.0,39.0
0.4772546,0.4659858,0.48007172,0.5285731,0.45604005,0.5145185,0.4867845,0.52064854,12.0,24.0,34.0,12.0,12.0,24.0,29.0,23.0,21.0,22.0,7.0,3.0,29.0,0.0,1.0
0.5291927,0.48260912,0.4840531,0.46155885,0.46427038,0.50997865,0.4885567,0.46165705,21.0,38.0,30.0,73.0,45.0,48.0,25.0,21.0,0.0,22.0,1.0,23.0,25.0,12.0,22.0
0.5035054,0.49807805,0.4924116,0.4957049,0.51234764,0.49769258,0.48567683,0.4863884,40.0,27.0,40.0,47.0,37.0,50.0,58.0,34.0,54.0,32.0,50.0,47.0,59.0,55.0,50.0
0.4975257,0.5030495,0.48974445,0.4957049,0.512026,0.5093072,0.48871872,0.47963703,22.0,27.0,44.0,44.0,43.0,37.0,59.0,72.0,58.0,49.0,73.0,53.0,45.0,34.0,44.0
0.49988592,0.50053775,0.4961251,0.4957049,0.5043736,0.5019796,0.4831572,0.49335405,26.0,16.0,53.0,41.0,64.0,34.0,36.0,62.0,54.0,48.0,50.0,40.0,60.0,56.0,41.0
0.49810556,0.50053775,0.47506508,0.5031157,0.50848657,0.5093072,0.4831572,0.47902465,17.0,16.0,30.0,51.0,56.0,35.0,41.0,37.0,37.0,38.0,41.0,32.0,36.0,61.0,52.0
0.5009941,0.49682572,0.4920936,0.4957049,0.5030628,0.49905556,0.4885567,0.46527967,30.0,55.0,53.0,62.0,62.0,66.0,65.0,85.0,80.0,60.0,79.0,85.0,60.0,76.0,88.0
0.5026377,0.46682099,0.4888096,0.5066788,0.48659325,0.51367164,0.49254876,0.50449234,21.0,11.0,30.0,10.0,27.0,14.0,4.0,2.0,6.0,26.0,20.0,10.0,1.0,21.0,18.0
0.5196653,0.49815938,0.47527015,0.46155885,0.48790288,0.51030076,0.4895913,0.45049804,24.0,35.0,43.0,75.0,55.0,52.0,28.0,28.0,6.0,22.0,8.0,25.0,20.0,29.0,3.0
0.5009941,0.49206874,0.4920936,0.4957049,0.5030628,0.49905556,0.4885567,0.46778572,44.0,44.0,57.0,69.0,79.0,76.0,68.0,94.0,64.0,60.0,65.0,63.0,75.0,97.0,67.0
0.5035054,0.49682572,0.4920936,0.4957049,0.50660217,0.4956252,0.4885567,0.4878971,37.0,55.0,54.0,26.0,37.0,39.0,64.0,47.0,45.0,72.0,73.0,75.0,68.0,71.0,64.0
0.5035054,0.50053775,0.49726337,0.4957049,0.5043736,0.50113016,0.49012205,0.47902465,32.0,22.0,52.0,60.0,72.0,41.0,33.0,43.0,44.0,46.0,56.0,38.0,49.0,43.0,51.0
0.5057995,0.4780272,0.49836034,0.49794883,0.46500257,0.5043866,0.5089772,0.49554586,40.0,38.0,40.0,52.0,55.0,50.0,3.0,12.0,13.0,5.0,20.0,29.0,5.0,13.0,27.0
0.49886766,0.46369365,0.48399138,0.5066788,0.48615387,0.51229554,0.47449738,0.5105423,14.0,28.0,30.0,12.0,25.0,29.0,21.0,5.0,24.0,25.0,7.0,10.0,11.0,11.0,7.0
0.5009941,0.49682572,0.4920936,0.4957049,0.5030628,0.49905556,0.4885567,0.46527967,34.0,47.0,61.0,70.0,77.0,72.0,68.0,74.0,87.0,60.0,72.0,61.0,73.0,80.0,84.0
0.5009941,0.49206874,0.4920936,0.4957049,0.5030628,0.49905556,0.4885567,0.46778572,45.0,53.0,60.0,72.0,90.0,72.0,62.0,71.0,87.0,60.0,79.0,62.0,71.0,69.0,88.0
0.5009941,0.49206874,0.4924116,0.4957049,0.5030628,0.49905556,0.4885567,0.46778572,52.0,41.0,52.0,66.0,93.0,65.0,67.0,72.0,80.0,60.0,85.0,88.0,72.0,93.0,72.0
0.47957352,0.4891426,0.50189966,0.49524528,0.4638829,0.5109143,0.48990762,0.5006124,24.0,8.0,33.0,16.0,25.0,20.0,26.0,28.0,29.0,9.0,6.0,11.0,12.0,9.0,18.0
0.5192847,0.48166183,0.49464127,0.48234767,0.4859077,0.49860153,0.505597,0.47669306,39.0,17.0,34.0,52.0,55.0,57.0,20.0,18.0,1.0,2.0,24.0,24.0,10.0,27.0,2.0
0.51137507,0.4813815,0.48458305,0.4904599,0.49026054,0.50625664,0.47614756,0.47270647,37.0,41.0,52.0,62.0,46.0,59.0,12.0,10.0,20.0,11.0,10.0,29.0,30.0,23.0,15.0
0.5035054,0.4832673,0.4920936,0.4957049,0.50660217,0.4959251,0.4885567,0.48706025,32.0,54.0,48.0,22.0,32.0,53.0,52.0,45.0,54.0,61.0,63.0,65.0,62.0,61.0,74.0
0.4989226,0.44138822,0.49360314,0.47835147,0.45969036,0.49860153,0.47378948,0.5128447,28.0,39.0,38.0,61.0,49.0,46.0,22.0,30.0,20.0,9.0,24.0,5.0,27.0,14.0,4.0
0.480058,0.43493915,0.47003013,0.5023728,0.49090374,0.51624066,0.49199498,0.5009631,25.0,7.0,5.0,8.0,2.0,23.0,9.0,10.0,8.0,27.0,19.0,4.0,23.0,4.0,17.0
0.5009941,0.49206874,0.4920936,0.4957049,0.5030628,0.49905556,0.4885567,0.46778572,46.0,46.0,61.0,74.0,68.0,79.0,65.0,91.0,83.0,60.0,93.0,73.0,62.0,85.0,88.0
0.5009941,0.49682572,0.4920936,0.48978934,0.50660217,0.5045375,0.4885567,0.4883673,37.0,43.0,40.0,41.0,20.0,5.0,49.0,54.0,59.0,78.0,60.0,74.0,66.0,78.0,73.0
0.5009941,0.49682572,0.4920936,0.4957049,0.5030628,0.4956252,0.4885567,0.4888724,38.0,52.0,43.0,26.0,58.0,43.0,62.0,59.0,60.0,78.0,63.0,72.0,61.0,70.0,73.0
0.5035054,0.50053775,0.49726337,0.4957049,0.507913,0.49905556,0.4831572,0.4784563,32.0,18.0,46.0,49.0,42.0,58.0,42.0,46.0,57.0,36.0,47.0,54.0,52.0,62.0,44.0
0.5035054,0.50036705,0.4920936,0.4957049,0.50660217,0.5013425,0.4885567,0.4917324,40.0,43.0,31.0,42.0,46.0,33.0,44.0,40.0,41.0,43.0,67.0,56.0,43.0,40.0,33.0
0.4874634,0.494579,0.47998023,0.49977747,0.4908301,0.5021464,0.49620643,0.5013667,26.0,3.0,8.0,5.0,26.0,29.0,28.0,15.0,0.0,17.0,29.0,24.0,19.0,2.0,9.0
0.49744076,0.49089193,0.49786106,0.4748604,0.49843428,0.510405,0.48002955,0.49481717,27.0,1.0,36.0,3.0,22.0,2.0,14.0,5.0,24.0,3.0,24.0,7.0,30.0,26.0,20.0
0.5162968,0.500565,0.46894613,0.46155885,0.48232695,0.5104117,0.4895913,0.4611181,24.0,28.0,22.0,7.0,18.0,21.0,23.0,28.0,9.0,17.0,8.0,28.0,10.0,30.0,0.0
0.5035054,0.49682572,0.49215406,0.4957049,0.50660217,0.5020385,0.4885567,0.4638262,30.0,41.0,56.0,60.0,38.0,33.0,31.0,46.0,58.0,47.0,73.0,49.0,50.0,51.0,60.0
0.5035054,0.49807805,0.4924116,0.4957049,0.50880826,0.4956252,0.4885567,0.4932742,42.0,30.0,50.0,31.0,71.0,45.0,57.0,45.0,60.0,43.0,58.0,53.0,50.0,63.0,44.0
0.5009941,0.50053775,0.49726337,0.4957049,0.5043736,0.49731076,0.48216283,0.48380324,37.0,21.0,50.0,47.0,74.0,45.0,39.0,65.0,32.0,57.0,56.0,53.0,36.0,59.0,39.0
0.5009941,0.49206874,0.4920936,0.4957049,0.5030628,0.49905556,0.4885567,0.46778572,55.0,47.0,46.0,74.0,76.0,62.0,64.0,92.0,89.0,60.0,94.0,87.0,66.0,61.0,78.0
0.48792195,0.4827594,0.50554085,0.4910901,0.4708086,0.50705457,0.49620643,0.47779745,10.0,8.0,24.0,17.0,20.0,13.0,3.0,8.0,5.0,3.0,23.0,17.0,27.0,9.0,23.0
0.49810556,0.50053775,0.47506508,0.5031157,0.50848657,0.5093072,0.49012205,0.47902465,16.0,21.0,52.0,60.0,59.0,43.0,55.0,32.0,56.0,51.0,44.0,34.0,45.0,45.0,54.0
0.48655048,0.4835674,0.49199358,0.5148046,0.45768172,0.5115475,0.49363196,0.5129986,15.0,25.0,20.0,2.0,13.0,12.0,27.0,13.0,10.0,16.0,2.0,28.0,7.0,1.0,23.0
0.49810556,0.49682572,0.48987278,0.5031157,0.50375736,0.5098414,0.4885567,0.4638262,17.0,44.0,31.0,55.0,40.0,47.0,40.0,41.0,50.0,46.0,38.0,56.0,35.0,63.0,44.0
0.5065521,0.46699476,0.43720916,0.4957049,0.4823811,0.5028027,0.45621264,0.4926175,54.0,48.0,42.0,4.0,55.0,30.0,53.0,56.0,48.0,89.0,61.0,63.0,66.0,73.0,74.0
0.5009941,0.49206874,0.4924116,0.4957049,0.5030628,0.49905556,0.4885567,0.46778572,54.0,39.0,82.0,67.0,91.0,75.0,67.0,70.0,71.0,60.0,88.0,81.0,65.0,64.0,85.0
0.49132177,0.475898,0.49118292,0.46155885,0.4866584,0.5043866,0.4885567,0.4835974,29.0,37.0,19.0,56.0,59.0,57.0,6.0,25.0,5.0,25.0,20.0,27.0,3.0,11.0,20.0
0.50239724,0.49682572,0.48987278,0.4957049,0.5078797,0.5098414,0.4885567,0.46222848,25.0,41.0,33.0,59.0,36.0,42.0,52.0,37.0,59.0,49.0,37.0,33.0,59.0,57.0,50.0
0.5009941,0.49807805,0.49726337,0.4957049,0.4799169,0.49731076,0.4831572,0.48307252,42.0,24.0,38.0,54.0,62.0,50.0,40.0,71.0,55.0,50.0,52.0,50.0,34.0,63.0,34.0
0.5009941,0.494366,0.4920936,0.4957049,0.5030628,0.49905556,0.4885567,0.46778572,42.0,47.0,77.0,63.0,93.0,75.0,62.0,85.0,81.0,60.0,77.0,88.0,62.0,95.0,61.0
0.48505783,0.47793773,0.47867,0.5092473,0.48925865,0.51229554,0.47787735,0.51940054,5.0,20.0,17.0,1.0,18.0,29.0,14.0,7.0,22.0,3.0,4.0,17.0,11.0,0.0,4.0
0.5191697,0.43318373,0.47835818,0.46155885,0.45969036,0.5002925,0.47378948,0.5128447,31.0,45.0,31.0,59.0,55.0,59.0,15.0,25.0,9.0,3.0,13.0,2.0,9.0,29.0,2.0
0.52925426,0.5001657,0.4911539,0.4931892,0.4661253,0.5057579,0.49713802,0.45738018,19.0,16.0,27.0,14.0,12.0,3.0,3.0,17.0,5.0,28.0,26.0,20.0,27.0,12.0,11.0
0.48564807,0.49534175,0.48456025,0.5016625,0.4904441,0.50842524,0.47787735,0.49763444,15.0,22.0,43.0,67.0,49.0,53.0,24.0,10.0,26.0,27.0,19.0,24.0,22.0,9.0,14.0
0.5127925,0.4540752,0.47199303,0.47978574,0.4531098,0.5086185,0.47792697,0.51972115,5.0,10.0,32.0,29.0,20.0,4.0,12.0,23.0,16.0,1.0,14.0,8.0,4.0,27.0,8.0
0.5017187,0.48157185,0.507915,0.49573103,0.4662967,0.5099136,0.49065882,0.46672136,9.0,16.0,43.0,15.0,9.0,5.0,6.0,2.0,11.0,1.0,5.0,24.0,25.0,23.0,30.0
0.48505783,0.487175,0.47527015,0.5140696,0.46743363,0.50691223,0.49295324,0.45202535,18.0,41.0,41.0,58.0,55.0,50.0,11.0,22.0,2.0,16.0,28.0,16.0,7.0,5.0,17.0
0.5009941,0.47806278,0.4924116,0.4957049,0.50880826,0.49905556,0.4885567,0.46932754,60.0,31.0,84.0,68.0,75.0,85.0,60.0,65.0,82.0,60.0,78.0,76.0,75.0,94.0,68.0
0.4880721,0.47638595,0.48488912,0.4966072,0.510723,0.51167756,0.48876813,0.49763444,14.0,24.0,6.0,16.0,21.0,11.0,8.0,17.0,14.0,24.0,25.0,18.0,30.0,14.0,21.0
0.48932144,0.48110512,0.49928698,0.51837254,0.4853571,0.5068148,0.49047843,0.47509953,24.0,26.0,35.0,57.0,54.0,53.0,0.0,13.0,4.0,22.0,22.0,21.0,3.0,1.0,23.0
0.5009941,0.49682572,0.4924116,0.4957049,0.5030628,0.49905556,0.4885567,0.46404064,38.0,34.0,71.0,70.0,97.0,76.0,68.0,97.0,66.0,60.0,73.0,73.0,76.0,80.0,63.0
0.5194324,0.44681254,0.47566986,0.47787696,0.45493466,0.50506335,0.47766602,0.51972115,19.0,26.0,40.0,61.0,58.0,48.0,19.0,18.0,14.0,10.0,24.0,0.0,5.0,18.0,7.0
0.48655048,0.47566321,0.48674926,0.5156375,0.47929654,0.5184684,0.47787735,0.5003077,22.0,6.0,6.0,16.0,5.0,9.0,3.0,17.0,23.0,6.0,2.0,16.0,24.0,7.0,25.0
0.4772546,0.4917863,0.47982052,0.5152903,0.45618853,0.50569594,0.48786387,0.51686704,20.0,26.0,26.0,67.0,49.0,56.0,11.0,18.0,15.0,15.0,23.0,11.0,0.0,2.0,12.0
0.4938678,0.49379808,0.4827308,0.5059707,0.48911446,0.5085843,0.47762543,0.5121781,17.0,22.0,34.0,58.0,60.0,58.0,2.0,0.0,23.0,17.0,2.0,13.0,12.0,13.0,6.0
0.50239724,0.50053775,0.4961251,0.4957049,0.5043736,0.5012668,0.49012205,0.49810845,27.0,24.0,45.0,34.0,59.0,46.0,39.0,37.0,55.0,52.0,30.0,46.0,50.0,45.0,56.0
0.5035054,0.50053775,0.4924116,0.4957049,0.50880826,0.4956252,0.48567683,0.48922634,32.0,27.0,58.0,46.0,73.0,50.0,54.0,41.0,51.0,57.0,41.0,30.0,44.0,73.0,44.0
0.5009941,0.4665532,0.4920936,0.48978934,0.48617375,0.49644288,0.4885567,0.4926175,45.0,51.0,39.0,20.0,12.0,47.0,48.0,53.0,46.0,78.0,71.0,73.0,60.0,78.0,74.0
0.4923344,0.50053775,0.48987278,0.5031157,0.50848657,0.5093072,0.4885567,0.49011144,15.0,29.0,53.0,46.0,55.0,56.0,47.0,71.0,30.0,44.0,36.0,42.0,38.0,52.0,45.0
0.5127925,0.49513927,0.48219052,0.4931892,0.47314462,0.51540697,0.489151,0.49003237,4.0,14.0,45.0,7.0,9.0,3.0,1.0,15.0,9.0,0.0,6.0,22.0,20.0,15.0,10.0
0.5009941,0.49206874,0.4920936,0.4957049,0.5030628,0.49905556,0.4885567,0.46778572,55.0,46.0,68.0,66.0,78.0,82.0,61.0,70.0,67.0,60.0,99.0,61.0,75.0,94.0,73.0
0.5091314,0.47673702,0.49353418,0.5084425,0.45739877,0.5043866,0.49372166,0.49185622,34.0,32.0,45.0,59.0,46.0,47.0,16.0,16.0,9.0,27.0,28.0,12.0,0.0,8.0,21.0
0.50881964,0.46699476,0.43720916,0.48978934,0.5182767,0.4964794,0.45621264,0.4917324,49.0,48.0,37.0,9.0,1.0,42.0,64.0,46.0,59.0,90.0,71.0,70.0,64.0,65.0,71.0
0.51892823,0.44276315,0.48529658,0.46815163,0.4851611,0.49860153,0.47377157,0.5110269,32.0,29.0,25.0,65.0,46.0,54.0,17.0,7.0,26.0,13.0,23.0,2.0,27.0,23.0,2.0
0.50512516,0.44138822,0.49350724,0.47835147,0.46242836,0.50105,0.47378948,0.5168169,40.0,17.0,48.0,46.0,50.0,47.0,16.0,27.0,23.0,24.0,24.0,8.0,3.0,14.0,15.0
0.5116165,0.48024416,0.47817475,0.47835147,0.47963506,0.5015274,0.488733,0.4896359,42.0,31.0,54.0,73.0,55.0,52.0,5.0,23.0,22.0,17.0,16.0,25.0,9.0,25.0,15.0
0.5157096,0.5001112,0.46291938,0.48943728,0.4746981,0.50868994,0.4895913,0.46944582,5.0,25.0,40.0,6.0,23.0,25.0,29.0,21.0,30.0,11.0,18.0,24.0,29.0,27.0,11.0
0.49371955,0.49682572,0.48987278,0.4957049,0.5027411,0.5098414,0.4885567,0.49011144,19.0,39.0,51.0,43.0,62.0,50.0,56.0,59.0,39.0,36.0,43.0,39.0,41.0,43.0,53.0
0.49491692,0.4974774,0.48439717,0.5012466,0.4904441,0.5085638,0.47614756,0.49763444,15.0,37.0,44.0,59.0,46.0,59.0,22.0,6.0,18.0,15.0,20.0,18.0,24.0,10.0,3.0
0.4975257,0.49682572,0.48987278,0.4957049,0.5027411,0.5094717,0.4885567,0.46527967,24.0,37.0,44.0,50.0,61.0,45.0,40.0,60.0,34.0,34.0,71.0,52.0,46.0,60.0,52.0
0.50239724,0.50053775,0.48987278,0.4957049,0.51362526,0.5093072,0.4885567,0.46222848,25.0,30.0,53.0,56.0,34.0,38.0,58.0,33.0,56.0,56.0,37.0,47.0,57.0,61.0,56.0
0.49393588,0.47223732,0.47790223,0.50758696,0.44779488,0.51413524,0.48028165,0.493196,6.0,1.0,1.0,11.0,9.0,2.0,19.0,26.0,23.0,26.0,29.0,20.0,22.0,15.0,30.0
0.5009941,0.49206874,0.4920936,0.4957049,0.5030628,0.49905556,0.4885567,0.46778572,46.0,56.0,46.0,65.0,60.0,63.0,65.0,66.0,63.0,60.0,63.0,81.0,63.0,76.0,80.0
0.5035054,0.49687776,0.4924116,0.4957049,0.50660217,0.50705576,0.4885567,0.48308092,41.0,38.0,57.0,40.0,43.0,37.0,46.0,39.0,46.0,56.0,40.0,47.0,53.0,32.0,51.0
0.5176041,0.49393147,0.49023333,0.48085275,0.47410792,0.51026726,0.48663613,0.51686704,17.0,18.0,36.0,69.0,51.0,59.0,16.0,17.0,12.0,11.0,22.0,11.0,30.0,18.0,13.0
0.5009941,0.49682572,0.4920936,0.4957049,0.5030628,0.49905556,0.4885567,0.46778572,39.0,45.0,84.0,62.0,71.0,67.0,67.0,79.0,89.0,60.0,99.0,74.0,67.0,76.0,69.0
0.5009941,0.49682572,0.4920936,0.4957049,0.5030628,0.49905556,0.4885567,0.46527967,34.0,51.0,90.0,66.0,66.0,70.0,61.0,80.0,77.0,60.0,96.0,77.0,67.0,77.0,73.0
0.49810556,0.48299548,0.46247986,0.4928737,0.48564765,0.5097497,0.48517513,0.46944582,5.0,16.0,36.0,28.0,25.0,13.0,1.0,21.0,25.0,14.0,0.0,23.0,27.0,26.0,20.0
0.5035054,0.48171583,0.4920936,0.48978934,0.50660217,0.4959251,0.4885567,0.4917324,52.0,45.0,38.0,22.0,17.0,45.0,63.0,45.0,58.0,65.0,70.0,69.0,70.0,62.0,61.0
0.5035054,0.50053775,0.49726337,0.4957049,0.5043736,0.49997988,0.49012205,0.48922634,28.0,25.0,44.0,38.0,66.0,55.0,48.0,38.0,33.0,53.0,68.0,52.0,45.0,45.0,37.0
0.4962622,0.49995664,0.47102794,0.49736974,0.48476446,0.51629704,0.47762543,0.5078906,18.0,30.0,17.0,6.0,4.0,12.0,11.0,1.0,20.0,24.0,9.0,21.0,15.0,14.0,13.0
0.5009941,0.494366,0.4924116,0.4957049,0.5030628,0.49905556,0.4885567,0.46778572,40.0,37.0,59.0,69.0,94.0,83.0,67.0,87.0,75.0,60.0,61.0,78.0,65.0,77.0,66.0
0.5089631,0.48453552,0.4931971,0.48819464,0.46500257,0.50711775,0.5091707,0.49310917,44.0,34.0,39.0,66.0,52.0,53.0,18.0,6.0,22.0,0.0,12.0,17.0,21.0,8.0,29.0
0.5009941,0.5030495,0.503046,0.4957049,0.507913,0.49997988,0.49012205,0.47822464,28.0,24.0,46.0,40.0,32.0,55.0,32.0,67.0,45.0,42.0,45.0,33.0,53.0,35.0,54.0
0.50748175,0.44138822,0.5015419,0.49580958,0.4602252,0.50711775,0.48927903,0.49586314,29.0,21.0,18.0,73.0,48.0,59.0,8.0,24.0,29.0,9.0,4.0,10.0,16.0,0.0,18.0
0.4819048,0.48953977,0.4987899,0.5019709,0.49061552,0.5148121,0.49352458,0.47273403,20.0,4.0,33.0,23.0,6.0,19.0,24.0,6.0,1.0,29.0,11.0,10.0,22.0,8.0,18.0
0.5065521,0.46234986,0.43720916,0.4957049,0.4823811,0.4959251,0.45621264,0.48794535,32.0,43.0,43.0,7.0,24.0,41.0,63.0,51.0,54.0,83.0,61.0,68.0,60.0,66.0,73.0
0.5178899,0.49931726,0.49159715,0.48958364,0.49453238,0.50125116,0.49620643,0.46188185,27.0,17.0,13.0,26.0,8.0,18.0,26.0,12.0,2.0,7.0,21.0,19.0,4.0,16.0,9.0
0.5008795,0.4877953,0.48431045,0.5025465,0.4899119,0.5097293,0.47343335,0.5081728,13.0,8.0,26.0,19.0,20.0,21.0,5.0,11.0,28.0,10.0,3.0,11.0,6.0,12.0,13.0
0.49479017,0.47921187,0.4495982,0.4928737,0.4748256,0.51371074,0.4622295,0.49770203,17.0,28.0,45.0,52.0,47.0,55.0,20.0,28.0,26.0,13.0,12.0,13.0,28.0,12.0,30.0
0.5009941,0.49807805,0.49726337,0.4957049,0.5076044,0.4954124,0.4831572,0.50349206,40.0,16.0,52.0,34.0,50.0,39.0,47.0,67.0,58.0,35.0,60.0,57.0,42.0,74.0,54.0
0.4874427,0.4745986,0.48024407,0.5285008,0.453008,0.5145932,0.5026109,0.4981358,18.0,19.0,12.0,8.0,30.0,28.0,20.0,28.0,11.0,3.0,24.0,20.0,26.0,7.0,19.0
0.5009941,0.5005897,0.50580776,0.4957049,0.5043736,0.50705576,0.49012205,0.48462275,42.0,24.0,41.0,32.0,66.0,37.0,43.0,52.0,48.0,52.0,36.0,37.0,58.0,31.0,57.0
0.49538642,0.48842806,0.5034202,0.5016456,0.48198017,0.5122499,0.48870134,0.46846408,22.0,29.0,39.0,0.0,14.0,1.0,8.0,7.0,1.0,19.0,16.0,2.0,4.0,26.0,26.0
0.5146425,0.4824702,0.4808344,0.4988578,0.4853571,0.50662255,0.49408868,0.46188185,22.0,21.0,17.0,63.0,47.0,53.0,16.0,3.0,3.0,27.0,24.0,17.0,21.0,17.0,23.0
0.5191697,0.49344975,0.49350724,0.47900257,0.4859077,0.49907905,0.4895913,0.48670322,33.0,17.0,32.0,49.0,54.0,54.0,28.0,19.0,18.0,10.0,17.0,27.0,15.0,15.0,1.0
0.5009941,0.49206874,0.4924116,0.48978934,0.50660217,0.49614298,0.4885567,0.4926175,43.0,36.0,52.0,41.0,5.0,49.0,54.0,59.0,53.0,79.0,74.0,61.0,66.0,73.0,70.0
0.4772546,0.4676838,0.47897905,0.5285731,0.45604005,0.51014775,0.4867845,0.52246815,4.0,3.0,44.0,7.0,20.0,8.0,23.0,23.0,28.0,21.0,11.0,6.0,14.0,2.0,0.0
0.5148739,0.49437755,0.49997595,0.49430963,0.47357273,0.50705457,0.48876813,0.46672136,9.0,13.0,28.0,24.0,26.0,19.0,13.0,6.0,15.0,5.0,26.0,20.0,26.0,17.0,19.0
0.5009941,0.49206874,0.4924116,0.4957049,0.5030628,0.49905556,0.4885567,0.46778572,54.0,36.0,50.0,68.0,84.0,68.0,60.0,67.0,79.0,60.0,93.0,62.0,68.0,76.0,69.0
0.5035054,0.49682572,0.49215406,0.4957049,0.5030628,0.4956252,0.4885567,0.48922634,33.0,36.0,32.0,40.0,64.0,46.0,31.0,44.0,48.0,53.0,57.0,54.0,45.0,63.0,43.0
0.5000915,0.49866542,0.4922513,0.49710533,0.48301515,0.51617056,0.47507885,0.5063695,9.0,28.0,14.0,21.0,2.0,8.0,4.0,2.0,24.0,24.0,14.0,3.0,21.0,25.0,15.0
0.48792195,0.47615916,0.4686281,0.5146217,0.47392258,0.5124917,0.47787735,0.5196452,3.0,28.0,17.0,5.0,6.0,16.0,4.0,8.0,25.0,6.0,28.0,13.0,2.0,8.0,24.0
0.5009941,0.49206874,0.4920936,0.4957049,0.5030628,0.49905556,0.4885567,0.46778572,45.0,58.0,52.0,67.0,100.0,61.0,64.0,87.0,77.0,60.0,99.0,79.0,61.0,85.0,88.0
0.49450144,0.47929648,0.4987899,0.48517385,0.46417975,0.50802064,0.49178237,0.5078906,17.0,44.0,54.0,70.0,46.0,46.0,6.0,6.0,13.0,14.0,10.0,25.0,15.0,10.0,22.0
0.5009941,0.49682572,0.4924116,0.4957049,0.5030628,0.49905556,0.4885567,0.46527967,33.0,40.0,49.0,64.0,63.0,78.0,60.0,84.0,72.0,60.0,75.0,77.0,68.0,90.0,89.0
0.5009941,0.49682572,0.4924116,0.4957049,0.5030628,0.5010079,0.4885567,0.49011144,29.0,41.0,34.0,32.0,75.0,32.0,54.0,57.0,41.0,32.0,65.0,59.0,55.0,68.0,34.0
0.5035054,0.49206874,0.4924116,0.4957049,0.5030628,0.50151575,0.4885567,0.46690062,45.0,37.0,41.0,50.0,74.0,34.0,34.0,43.0,47.0,55.0,66.0,32.0,44.0,69.0,56.0
0.5033828,0.44276315,0.49163148,0.49274105,0.49011132,0.5148977,0.47785038,0.51947075,15.0,11.0,7.0,26.0,1.0,17.0,21.0,15.0,11.0,14.0,29.0,9.0,8.0,22.0,3.0
0.5035054,0.4993375,0.4924116,0.4957049,0.5030628,0.5050489,0.4885567,0.48039073,36.0,41.0,60.0,36.0,51.0,39.0,50.0,33.0,49.0,56.0,72.0,32.0,41.0,34.0,40.0
0.5033828,0.48006424,0.4908872,0.50077397,0.4579827,0.51413524,0.49620643,0.48479956,2.0,11.0,2.0,6.0,6.0,29.0,12.0,8.0,2.0,2.0,26.0,13.0,24.0,26.0,21.0
0.5022854,0.47672266,0.49191016,0.4854629,0.49038348,0.49731076,0.4885567,0.46439457,33.0,36.0,50.0,59.0,63.0,36.0,36.0,48.0,39.0,51.0,45.0,49.0,30.0,47.0,52.0
0.5009941,0.49206874,0.4920936,0.4957049,0.5030628,0.49905556,0.4885567,0.46778572,49.0,44.0,85.0,67.0,69.0,74.0,64.0,96.0,76.0,60.0,64.0,85.0,70.0,65.0,79.0
0.50095147,0.50053775,0.4961251,0.4957049,0.50848657,0.5093072,0.4831572,0.4920183,23.0,24.0,51.0,42.0,61.0,55.0,32.0,30.0,41.0,36.0,51.0,52.0,55.0,67.0,59.0
0.5035054,0.47806278,0.49726337,0.4957049,0.5043736,0.49905556,0.4831572,0.48307252,44.0,20.0,53.0,50.0,63.0,54.0,56.0,40.0,48.0,56.0,57.0,57.0,42.0,63.0,34.0
0.5009941,0.49206874,0.4924116,0.4957049,0.50391555,0.49905556,0.4885567,0.46932754,43.0,32.0,54.0,62.0,87.0,72.0,63.0,85.0,68.0,60.0,88.0,63.0,74.0,69.0,70.0
0.5009941,0.49682572,0.4920936,0.4957049,0.5030628,0.49905556,0.4885567,0.46527967,33.0,48.0,53.0,69.0,80.0,64.0,70.0,94.0,81.0,60.0,82.0,85.0,78.0,88.0,78.0
0.5009941,0.49682572,0.4924116,0.4957049,0.5030628,0.49905556,0.4885567,0.46527967,35.0,40.0,77.0,61.0,61.0,83.0,65.0,68.0,87.0,60.0,96.0,62.0,71.0,64.0,70.0
0.5009941,0.50053775,0.4924116,0.4957049,0.50880826,0.49905556,0.4885567,0.46527967,36.0,31.0,53.0,64.0,67.0,86.0,68.0,67.0,84.0,60.0,99.0,79.0,66.0,97.0,79.0
0.5009941,0.49206874,0.4924116,0.4957049,0.5030628,0.49905556,0.4885567,0.46778572,45.0,39.0,49.0,60.0,72.0,65.0,69.0,67.0,75.0,60.0,92.0,64.0,68.0,92.0,89.0
0.4949122,0.45226613,0.4507083,0.4897696,0.45397487,0.5101268,0.44523674,0.49481717,22.0,45.0,38.0,46.0,59.0,46.0,27.0,28.0,15.0,19.0,9.0,9.0,24.0,10.0,19.0
0.5009941,0.4993375,0.4924116,0.4957049,0.50391555,0.49731076,0.4885567,0.4887822,37.0,32.0,38.0,44.0,65.0,52.0,38.0,74.0,32.0,58.0,67.0,43.0,37.0,38.0,57.0
0.51296264,0.44138822,0.49350724,0.4733809,0.45969036,0.5015274,0.48393965,0.5128447,33.0,18.0,55.0,72.0,45.0,52.0,15.0,26.0,13.0,27.0,17.0,2.0,11.0,3.0,15.0
0.51199776,0.49132457,0.48013386,0.4854629,0.50676525,0.50829464,0.49164686,0.46861833,36.0,42.0,15.0,58.0,51.0,52.0,7.0,29.0,29.0,4.0,2.0,24.0,8.0,29.0,5.0
0.5009941,0.494366,0.4924116,0.48978934,0.50660217,0.5008834,0.4885567,0.4926175,41.0,36.0,32.0,41.0,14.0,35.0,49.0,52.0,49.0,83.0,70.0,70.0,61.0,65.0,63.0
0.4772546,0.49858674,0.49008176,0.51041585,0.5040178,0.5102124,0.48315722,0.5000763,12.0,17.0,35.0,29.0,3.0,5.0,27.0,8.0,21.0,17.0,26.0,1.0,11.0,7.0,16.0
0.5009941,0.49682572,0.4920936,0.4957049,0.50660217,0.49905556,0.4885567,0.46395043,37.0,43.0,43.0,54.0,43.0,51.0,42.0,75.0,45.0,36.0,30.0,41.0,43.0,49.0,36.0
0.5148739,0.4903737,0.49906012,0.5038265,0.5103782,0.5060673,0.49326023,0.46412033,19.0,22.0,35.0,63.0,47.0,58.0,18.0,5.0,12.0,11.0,25.0,14.0,4.0,30.0,17.0
0.5091314,0.44138822,0.44938394,0.4848857,0.45820513,0.5043866,0.44467556,0.49586314,32.0,42.0,27.0,75.0,49.0,52.0,11.0,24.0,28.0,15.0,24.0,3.0,18.0,5.0,20.0
0.5009941,0.4927263,0.4920936,0.4957049,0.50660217,0.50250286,0.4885567,0.4926175,42.0,55.0,32.0,24.0,30.0,16.0,66.0,53.0,54.0,65.0,63.0,61.0,62.0,77.0,61.0
0.49988592,0.50053775,0.4961251,0.4957049,0.5130209,0.5093072,0.4831572,0.4994442,25.0,15.0,35.0,31.0,48.0,52.0,49.0,55.0,42.0,48.0,59.0,55.0,52.0,67.0,51.0
0.49578992,0.45226613,0.46247986,0.47525874,0.45397487,0.5095285,0.47625443,0.51042914,17.0,23.0,17.0,53.0,49.0,51.0,4.0,19.0,19.0,29.0,17.0,6.0,15.0,12.0,17.0
0.5009941,0.49682572,0.4924116,0.4957049,0.50391555,0.49731076,0.4885567,0.49011144,29.0,32.0,40.0,32.0,69.0,58.0,53.0,74.0,40.0,44.0,36.0,51.0,36.0,73.0,50.0
0.5035054,0.5030495,0.50580776,0.4957049,0.507913,0.50705576,0.49012205,0.47179726,31.0,25.0,32.0,47.0,37.0,47.0,47.0,32.0,55.0,35.0,71.0,57.0,55.0,32.0,53.0
0.5035054,0.43318373,0.5015419,0.4854629,0.46038052,0.5090953,0.47671312,0.50556546,28.0,19.0,52.0,60.0,53.0,60.0,28.0,29.0,28.0,20.0,8.0,7.0,6.0,30.0,20.0
0.5009941,0.49682572,0.4920936,0.4957049,0.50660217,0.4956252,0.4885567,0.49011144,32.0,58.0,43.0,35.0,45.0,41.0,53.0,57.0,51.0,88.0,69.0,61.0,62.0,63.0,73.0
0.51892823,0.48291075,0.49350724,0.47835147,0.47520033,0.5011541,0.48828492,0.4911691,44.0,22.0,35.0,58.0,51.0,57.0,6.0,28.0,21.0,16.0,5.0,25.0,24.0,18.0,10.0
0.5191697,0.43397185,0.48796964,0.47835147,0.4601635,0.49907905,0.47378948,0.5128447,38.0,26.0,48.0,67.0,52.0,46.0,14.0,28.0,18.0,6.0,16.0,2.0,1.0,20.0,3.0
0.5009941,0.49682572,0.49215406,0.4957049,0.50660217,0.49905556,0.4885567,0.4647113,33.0,40.0,57.0,49.0,42.0,51.0,32.0,56.0,60.0,50.0,74.0,46.0,57.0,60.0,59.0
0.50239724,0.5030495,0.49074778,0.4957049,0.51234764,0.50330704,0.48871872,0.48706025,27.0,28.0,32.0,41.0,31.0,30.0,32.0,30.0,33.0,42.0,47.0,41.0,36.0,39.0,49.0
0.49988592,0.50156724,0.4961251,0.4957049,0.50948143,0.5093072,0.4831572,0.4994442,25.0,15.0,36.0,34.0,56.0,46.0,46.0,52.0,49.0,49.0,71.0,32.0,45.0,51.0,33.0
0.5035054,0.47806278,0.4924116,0.4957049,0.51234764,0.50113016,0.48871872,0.4678592,44.0,27.0,45.0,57.0,47.0,37.0,38.0,43.0,58.0,52.0,34.0,30.0,44.0,45.0,36.0
0.5009941,0.494366,0.4920936,0.4957049,0.5030628,0.49905556,0.4885567,0.46778572,41.0,51.0,86.0,75.0,83.0,64.0,63.0,97.0,68.0,60.0,80.0,75.0,71.0,87.0,80.0
0.49967828,0.4897165,0.49013874,0.494546,0.49211204,0.5002925,0.49363196,0.49157262,28.0,26.0,28.0,63.0,53.0,60.0,22.0,10.0,10.0,12.0,13.0,12.0,24.0,11.0,10.0
0.5035054,0.50053775,0.4924116,0.4957049,0.4925883,0.49731076,0.48567683,0.46439457,33.0,28.0,49.0,49.0,59.0,56.0,50.0,43.0,48.0,43.0,58.0,34.0,35.0,72.0,38.0
0.5009941,0.49682572,0.4920936,0.4957049,0.5030628,0.49905556,0.4885567,0.46527967,33.0,52.0,90.0,64.0,70.0,65.0,69.0,73.0,72.0,60.0,91.0,82.0,74.0,76.0,63.0
0.5009941,0.49206874,0.4920936,0.4957049,0.5030628,0.49905556,0.4885567,0.46778572,50.0,51.0,74.0,60.0,71.0,72.0,70.0,68.0,68.0,60.0,96.0,61.0,78.0,67.0,76.0
0.48822552,0.49711826,0.48374966,0.5092473,0.49181107,0.50654924,0.47787735,0.5112558,3.0,6.0,45.0,20.0,15.0,14.0,16.0,3.0,19.0,17.0,10.0,17.0,10.0,1.0,11.0
0.48630047,0.48134732,0.49412376,0.49228075,0.47078335,0.5133607,0.47787735,0.4933418,23.0,27.0,39.0,65.0,49.0,52.0,9.0,12.0,27.0,8.0,3.0,24.0,29.0,3.0,27.0
0.5148739,0.48357525,0.5105705,0.49645388,0.46474233,0.5067373,0.49465826,0.4586344,26.0,41.0,59.0,63.0,52.0,50.0,4.0,5.0,5.0,17.0,24.0,16.0,29.0,27.0,27.0
0.49578992,0.48230222,0.49312183,0.49615395,0.4769526,0.50930804,0.48138607,0.49796888,12.0,26.0,16.0,29.0,11.0,9.0,18.0,4.0,16.0,9.0,15.0,15.0,25.0,11.0,23.0
0.5115082,0.4469843,0.46247986,0.47668862,0.45776743,0.5095285,0.47671312,0.5090379,8.0,1.0,18.0,26.0,26.0,10.0,17.0,19.0,13.0,14.0,15.0,3.0,10.0,17.0,23.0
